Time [h]	Pump.FluidMassFlux [kg/s]	Heat exchanger.FluidMassFlux [kg/s]	Pipe.FluidMassFlux [kg/s]	Pump.OutletNodeTemperature [C]	Heat exchanger.OutletNodeTemperature [C]	Pipe.OutletNodeTemperature [C]	Pump.PressureDifference [Pa]	Heat exchanger.PressureDifference [Pa]	Pipe.PressureDifference [Pa]	Heat exchanger.ControllerResultValue [---]	Heat exchanger.TemperatureDifference [K]
0	0.00103473	0.00103473	0.00103473	10	10	10	-10000	9999.97	0.0258247	3e+06	0
1	0.00215757	0.00215757	0.00215757	9.9998	9.2784	9.99874	-10000	9999.95	0.0538486	689970	2.31003
2	0.00361856	0.00361856	0.00361856	9.99593	8.04124	9.98932	-10000	9999.91	0.0903119	245283	2.75472
3	0.0051903	0.0051903	0.0051903	9.97993	7.3187	9.9673	-10000	9999.87	0.129539	119211	2.88079
4	0.00680274	0.00680274	0.00680274	9.95034	7.07045	9.93622	-10000	9999.83	0.169783	69388.2	2.93061
5	0.00843365	0.00843365	0.00843365	9.9131	6.98288	9.90024	-10000	9999.79	0.210487	45139.9	2.95486
6	0.0100743	0.0100743	0.0100743	9.87274	6.92246	9.86143	-10000	9999.75	0.251435	31629	2.96837
7	0.0117207	0.0117207	0.0117207	9.8307	6.86728	9.82064	-10000	9999.71	0.292526	23362.4	2.97664
8	0.0133708	0.0133708	0.0133708	9.78744	6.81677	9.77839	-10000	9999.67	0.333708	17947.7	2.98205
9	0.0150233	0.0150233	0.0150233	9.74329	6.76767	9.73508	-10000	9999.63	0.374952	14212.7	2.98579
10	0.0166776	0.0166776	0.0166776	9.6985	6.71902	9.69102	-10000	9999.58	0.416239	11529.5	2.98847
11	0.0183331	0.0183331	0.0183331	9.65334	6.66983	9.64645	-10000	9999.54	0.457558	9538.09	2.99046
12	0.0199896	0.0199896	0.0199896	9.60783	6.62229	9.60149	-10000	9999.5	0.498901	8019.9	2.99198
13	0.0216469	0.0216469	0.0216469	9.56213	6.57459	9.55625	-10000	9999.46	0.540262	6836.25	2.99316
14	0.0233047	0.0233047	0.0233047	9.51632	6.52691	9.51084	-10000	9999.42	0.581638	5895.73	2.9941
15	0.024963	0.024963	0.024963	9.47041	6.4806	9.4653	-10000	9999.38	0.623026	5136.11	2.99486
16	0.0266217	0.0266217	0.0266217	9.42449	6.43389	9.4197	-10000	9999.34	0.664423	4513.84	2.99549
17	0.0282806	0.0282806	0.0282806	9.37861	6.38719	9.37411	-10000	9999.29	0.705828	3997.73	2.996
18	0.0299399	0.0299399	0.0299399	9.3328	6.34072	9.32855	-10000	9999.25	0.747239	3564.96	2.99644
19	0.0315993	0.0315993	0.0315993	9.28706	6.29434	9.28304	-10000	9999.21	0.788656	3198.5	2.9968
20	0.033259	0.033259	0.033259	9.24141	6.24819	9.2376	-10000	9999.17	0.830077	2885.49	2.99711
21	0.0349188	0.0349188	0.0349188	9.19586	6.20213	9.19224	-10000	9999.13	0.871503	2616.01	2.99738
22	0.0365788	0.0365788	0.0365788	9.15041	6.15633	9.14696	-10000	9999.09	0.912932	2382.42	2.99762
23	0.0382388	0.0382388	0.0382388	9.10507	6.11053	9.10178	-10000	9999.05	0.954364	2178.51	2.99782
24	0.039899	0.039899	0.039899	9.05984	6.06511	9.05669	-10000	9999	0.995798	1999.51	2.998
25	0.0415593	0.0415593	0.0415593	9.01473	6.01947	9.01171	-10000	9998.96	1.03724	1841.52	2.99816
26	0.0432196	0.0432196	0.0432196	8.96973	5.97399	8.96683	-10000	9998.92	1.07867	1701.38	2.9983
27	0.04488	0.04488	0.04488	8.92484	5.92941	8.92206	-10000	9998.88	1.12012	1576.5	2.99842
28	0.0465405	0.0465405	0.0465405	8.88008	5.88435	8.87741	-10000	9998.84	1.16156	1464.75	2.99854
29	0.0482011	0.0482011	0.0482011	8.83543	5.83939	8.83286	-10000	9998.8	1.203	1364.34	2.99864
30	0.0498617	0.0498617	0.0498617	8.79091	5.79467	8.78843	-10000	9998.76	1.24445	1273.79	2.99873
31	0.0515223	0.0515223	0.0515223	8.7465	5.75009	8.74411	-10000	9998.71	1.28589	1191.85	2.99881
32	0.053183	0.053183	0.053183	8.70221	5.70565	8.6999	-10000	9998.67	1.32734	1117.47	2.99888
33	0.0548438	0.0548438	0.0548438	8.65804	5.66133	8.65581	-10000	9998.63	1.36879	1049.74	2.99895
34	0.0565045	0.0565045	0.0565045	8.61399	5.61715	8.61182	-10000	9998.59	1.41024	987.891	2.99901
35	0.0581653	0.0581653	0.0581653	8.57005	5.57309	8.56796	-10000	9998.55	1.45169	931.264	2.99907
36	0.0598261	0.0598261	0.0598261	8.52623	5.52915	8.5242	-10000	9998.51	1.49314	879.286	2.99912
37	0.061487	0.061487	0.061487	8.48253	5.48534	8.48056	-10000	9998.47	1.53459	831.463	2.99917
38	0.0631479	0.0631479	0.0631479	8.43894	5.44165	8.43702	-10000	9998.42	1.57604	787.363	2.99921
39	0.0648088	0.0648088	0.0648088	8.39546	5.39808	8.3936	-10000	9998.38	1.6175	746.609	2.99925
40	0.0664697	0.0664697	0.0664697	8.3521	5.35462	8.35029	-10000	9998.34	1.65895	708.871	2.99929
41	0.0681307	0.0681307	0.0681307	8.30885	5.31129	8.30709	-10000	9998.3	1.7004	673.86	2.99933
42	0.0697916	0.0697916	0.0697916	8.26571	5.26807	8.264	-10000	9998.26	1.74186	641.317	2.99936
43	0.0714526	0.0714526	0.0714526	8.22268	5.22497	8.22101	-10000	9998.22	1.78331	611.018	2.99939
44	0.0731136	0.0731136	0.0731136	8.17976	5.18198	8.17813	-10000	9998.18	1.82477	582.76	2.99942
45	0.0747746	0.0747746	0.0747746	8.13695	5.1391	8.13536	-10000	9998.13	1.86622	556.364	2.99944
46	0.0764357	0.0764357	0.0764357	8.09425	5.09633	8.0927	-10000	9998.09	1.90768	531.669	2.99947
47	0.0780967	0.0780967	0.0780967	8.05165	5.05367	8.05014	-10000	9998.05	1.94914	508.534	2.99949
48	0.0797578	0.0797578	0.0797578	8.01099	5.01292	8.00954	-10000	9998.01	1.99059	486.826	2.99951
49	0.0797578	0.0797578	0.0797578	7.97496	4.97659	7.97384	-10000	9998.01	1.99059	486.826	2.99951
50	0.0797578	0.0797578	0.0797578	7.94753	4.94888	7.94659	-10000	9998.01	1.99059	486.826	2.99951
51	0.0797578	0.0797578	0.0797578	7.92613	4.92728	7.92545	-10000	9998.01	1.99059	486.826	2.99951
52	0.0797578	0.0797578	0.0797578	7.91002	4.91091	7.90949	-10000	9998.01	1.99059	486.826	2.99951
53	0.0930466	0.0930466	0.0930466	7.88437	4.88696	7.88198	-10000	9997.68	2.32225	352.918	2.99965
54	0.159495	0.159495	0.159495	7.57529	4.58413	7.56655	-10000	9996.02	3.98068	108.213	2.99989
55	0.225947	0.225947	0.225947	6.92245	3.93214	6.91266	-10000	9994.36	5.63918	44.8807	2.99996
56	0.239237	0.239237	0.239237	6.17249	3.18072	6.16361	-10000	9994.03	5.97088	38.0862	2.99996
57	0.239237	0.239237	0.239237	5.61889	2.62438	5.61347	-10000	9994.03	5.97088	38.0862	2.99996
58	0.239237	0.239237	0.239237	5.22166	2.22561	5.21777	-10000	9994.03	5.97088	38.0862	2.99996
59	0.239237	0.239237	0.239237	4.9354	1.93826	4.93259	-10000	9994.03	5.97088	38.0862	2.99996
60	0.239237	0.239237	0.239237	4.72941	1.73149	4.72738	-10000	9994.03	5.97088	38.0862	2.99996
61	0.239237	0.239237	0.239237	4.58088	1.58239	4.57942	-10000	9994.03	5.97088	38.0862	2.99996
62	0.239237	0.239237	0.239237	4.47318	1.47428	4.47212	-10000	9994.03	5.97088	38.0862	2.99996
63	0.239237	0.239237	0.239237	4.395	1.3958	4.39423	-10000	9994.03	5.97088	38.0862	2.99996
64	0.239237	0.239237	0.239237	4.3385	1.33909	4.33795	-10000	9994.03	5.97088	38.0862	2.99996
65	0.224618	0.224618	0.224618	4.311	1.31077	4.31132	-10000	9994.39	5.60601	45.627	2.99995
66	0.151521	0.151521	0.151521	4.58199	1.5748	4.589	-10000	9996.22	3.78167	121.85	2.99988
67	0.0784289	0.0784289	0.0784289	5.19931	2.16913	5.23431	-10000	9998.04	1.95743	504.079	2.9995
68	0.053183	0.053183	0.053183	5.99264	2.95205	6.02666	-10000	9998.67	1.32734	1117.46	2.99888
69	0.039899	0.039899	0.039899	6.66252	3.62205	6.70578	-10000	9999	0.995798	1999.47	2.998
70	0.0266217	0.0266217	0.0266217	7.24405	4.19334	7.29977	-10000	9999.34	0.664423	4513.84	2.99549
71	0.0133708	0.0133708	0.0133708	7.74391	4.6751	7.83307	-10000	9999.67	0.333708	17947.7	2.98205
72	0.00103473	0.00103473	0.00103473	8.05587	5.12975	8.32294	-10000	9999.97	0.0258246	3e+06	0
