Time [h]	Office.VentilationHeatLoad [W]
2880	227.293
2881	-804.619
2882	-1645.22
2883	-2330.97
2884	-2891.32
2885	-3350.08
2886	-3726.5
2887	-4036.3
2888	-4292.11
2889	-4504.18
2890	-4680.75
2891	-4828.54
2892	-4953.02
2893	-5058.63
2894	-5148.96
2895	-5226.92
2896	-5294.84
2897	-5354.63
2898	-5407.85
2899	-5455.73
2900	-5499.29
2901	-5539.34
2902	-5576.57
2903	-5611.49
2904	-5644.56
2905	-5676.12
2906	-5706.47
2907	-5735.82
2908	-5764.38
2909	-5792.28
2910	-5819.66
2911	-5846.62
2912	-5873.23
2913	-5899.56
2914	-5925.66
2915	-5951.58
2916	-5977.35
2917	-6003
2918	-6028.55
2919	-6054.03
2920	-6079.44
2921	-6104.8
2922	-6130.11
2923	-6155.4
2924	-6180.65
2925	-6205.88
2926	-6231.1
2927	-6256.3
2928	-6281.32
2929	-6304.04
2930	-6322.49
2931	-6337.35
2932	-6349.6
2933	-6359.54
2934	-6367.54
2935	-6374.07
2936	-6379.42
2937	-6383.75
2938	-6387.27
2939	-6390.14
2940	-6392.51
2941	-6394.46
2942	-6396.08
2943	-6397.41
2944	-6398.51
2945	-6399.43
2946	-6400.2
2947	-6400.85
2948	-6401.41
2949	-6401.88
2950	-6402.29
2951	-6402.65
2952	-6402.97
2953	-6403.25
2954	-6403.5
2955	-6403.74
2956	-6403.95
2957	-6404.15
2958	-6404.34
2959	-6404.52
2960	-6404.69
2961	-6404.85
2962	-6405.01
2963	-6405.16
2964	-6405.32
2965	-6405.46
2966	-6405.61
2967	-6405.76
2968	-6405.9
2969	-6406.04
2970	-6406.18
2971	-6406.32
2972	-6406.46
2973	-6406.6
2974	-6406.74
2975	-6406.88
2976	-6407.02
2977	-6407.15
2978	-6407.29
2979	-6407.43
2980	-6407.57
2981	-6407.7
2982	-6407.84
2983	-6407.98
2984	-6408.12
2985	-6408.25
2986	-6408.39
2987	-6408.53
2988	-6408.66
2989	-6408.8
2990	-6408.94
2991	-6409.08
2992	-6409.21
2993	-6409.35
2994	-6409.49
2995	-6409.62
2996	-6409.76
2997	-6409.9
2998	-6410.03
2999	-6410.17
3000	-6410.31
3001	-6530.67
3002	-6626.84
3003	-6702.49
3004	-6760.59
3005	-6804.07
3006	-6835.45
3007	-6856.92
3008	-6870.36
3009	-6877.36
3010	-6879.25
3011	-6877.15
3012	-6871.98
3013	-6864.51
3014	-6855.36
3015	-6845.04
3016	-6833.94
3017	-6822.38
3018	-6810.6
3019	-6798.81
3020	-6787.13
3021	-6775.67
3022	-6764.51
3023	-6753.7
3024	-6743.02
3025	-6731.11
3026	-6716.93
3027	-6700.61
3028	-6682.86
3029	-6664.29
3030	-6645.26
3031	-6625.93
3032	-6606.43
3033	-6586.88
3034	-6567.37
3035	-6547.99
3036	-6528.77
3037	-6509.74
3038	-6490.9
3039	-6472.28
3040	-6453.87
3041	-6435.67
3042	-6417.68
3043	-6399.88
3044	-6382.28
3045	-6364.87
3046	-6347.63
3047	-6330.57
3048	-6313.93
3049	-6243.86
3050	-6194.16
3051	-6157.14
3052	-6128.54
3053	-6105.53
3054	-6086.19
3055	-6069.22
3056	-6053.8
3057	-6039.42
3058	-6025.74
3059	-6012.52
3060	-5999.6
3061	-5986.87
3062	-5974.27
3063	-5961.75
3064	-5949.28
3065	-5936.85
3066	-5924.44
3067	-5912.05
3068	-5899.67
3069	-5887.29
3070	-5874.92
3071	-5862.56
3072	-5850.19
3073	-5837.82
3074	-5825.46
3075	-5813.1
3076	-5800.73
3077	-5788.37
3078	-5776
3079	-5763.64
3080	-5751.28
3081	-5738.92
3082	-5726.55
3083	-5714.19
3084	-5701.83
3085	-5689.46
3086	-5677.1
3087	-5664.74
3088	-5652.37
3089	-5640.01
3090	-5627.65
3091	-5615.29
3092	-5602.92
3093	-5590.56
3094	-5578.2
3095	-5565.83
3096	-5553.47
3097	-5541.11
3098	-5528.74
3099	-5516.38
3100	-5504.02
3101	-5491.66
3102	-5479.29
3103	-5466.93
3104	-5454.57
3105	-5442.2
3106	-5429.84
3107	-5417.48
3108	-5405.11
3109	-5392.75
3110	-5380.39
3111	-5368.03
3112	-5355.66
3113	-5343.3
3114	-5330.94
3115	-5318.57
3116	-5306.21
3117	-5293.85
3118	-5281.48
3119	-5269.12
3120	-5256.83
