Time [h]	Model(id=1001).HeatingControlValue(id=1) [---]	Model(id=1001).CoolingControlValue(id=1) [---]
4560	10	-30
4560.17	13.8637	-33.8637
4560.33	16.0341	-36.0341
4560.5	17.3323	-37.3323
4560.67	18.1734	-38.1734
4560.83	18.7713	-38.7713
4561	19.238	-39.238
4561.17	19.5537	-39.5537
4561.33	19.7232	-39.7232
4561.5	19.8122	-39.8122
4561.67	19.8558	-39.8558
4561.83	19.873	-39.873
4562	19.8742	-39.8742
4562.17	19.9329	-39.9329
4562.33	20.0756	-40.0756
4562.5	20.263	-40.263
4562.67	20.4744	-40.4744
4562.83	20.6991	-40.6991
4563	20.9314	-40.9314
4563.17	21.1344	-41.1344
4563.33	21.2947	-41.2947
4563.5	21.4323	-41.4323
4563.67	21.5575	-41.5575
4563.83	21.6759	-41.6759
4564	21.7903	-41.7903
4564.17	21.9136	-41.9136
4564.33	22.0505	-42.0505
4564.5	22.1947	-42.1947
4564.67	22.3428	-42.3428
4564.83	22.493	-42.493
4565	22.6442	-42.6442
4565.17	22.7287	-42.7287
4565.33	22.7225	-42.7225
4565.5	22.6672	-42.6672
4565.67	22.5844	-42.5844
4565.83	22.4855	-42.4855
4566	22.3768	-42.3768
4566.17	22.2841	-42.2841
4566.33	22.2172	-42.2172
4566.5	22.1633	-42.1633
4566.67	22.1158	-42.1158
4566.83	22.0712	-42.0712
4567	22.0278	-42.0278
4567.17	21.9393	-41.9393
4567.33	21.7896	-41.7896
4567.5	21.6063	-41.6063
4567.67	21.4037	-41.4037
4567.83	21.1895	-41.1895
4568	20.9677	-40.9677
4568.17	20.7631	-40.7631
4568.33	20.5848	-40.5848
4568.5	20.4195	-40.4195
4568.67	20.2606	-40.2606
4568.83	20.1043	-40.1043
4569	19.9489	-39.9489
4569.17	19.6236	-39.6236
4569.33	19.0698	-39.0698
4569.5	18.3914	-38.3914
4569.67	17.6425	-37.6425
4569.83	16.8518	-36.8518
4570	16.0347	-36.0347
4570.17	15.1883	-35.1883
4570.33	14.3136	-34.3136
4570.5	13.4201	-33.4201
4570.67	12.5133	-32.5133
4570.83	11.5958	-31.5958
4571	10.6694	-30.6694
4571.17	9.88224	-29.8822
4571.33	9.28523	-29.2852
4571.5	8.78841	-28.7884
4571.67	8.34506	-28.3451
4571.83	7.93051	-27.9305
4572	7.53151	-27.5315
4572.17	7.2991	-27.2991
4572.33	7.2838	-27.2838
4572.5	7.38563	-27.3856
4572.67	7.55287	-27.5529
4572.83	7.75781	-27.7578
4573	7.98538	-27.9854
4573.17	8.01285	-28.0128
4573.33	7.7617	-27.7617
4573.5	7.36128	-27.3613
4573.67	6.87868	-26.8787
4573.83	6.34935	-26.3494
4574	5.79237	-25.7924
4574.17	5.26304	-25.263
4574.33	4.78287	-24.7829
4574.5	4.32717	-24.3272
4574.67	3.88337	-23.8834
4574.83	3.44495	-23.4449
4575	3.00859	-23.0086
4575.17	2.79874	-22.7987
4575.33	2.89179	-22.8918
4575.5	3.14823	-23.1482
4575.67	3.49552	-23.4955
4575.83	3.89525	-23.8953
4576	4.32674	-24.3267
4576.17	4.82365	-24.8236
4576.33	5.39522	-25.3952
4576.5	6.01017	-26.0102
4576.67	6.65172	-26.6517
4576.83	7.31094	-27.3109
4577	7.98286	-27.9829
4577.17	8.56274	-28.5627
4577.33	9.01419	-29.0142
4577.5	9.3988	-29.3988
4577.67	9.74842	-29.7484
4577.83	10.0799	-30.0799
4578	10.4021	-30.4021
4578.17	10.6635	-30.6635
4578.33	10.8472	-30.8472
4578.5	10.9897	-30.9897
4578.67	11.1098	-31.1098
4578.83	11.2177	-31.2177
4579	11.3188	-31.3188
4579.17	11.5633	-31.5633
4579.33	12.003	-32.003
4579.5	12.5487	-32.5487
4579.67	13.1539	-33.1539
4579.83	13.7941	-33.7941
4580	14.4561	-34.4561
4580.17	15.0649	-35.0649
4580.33	15.5931	-35.5931
4580.5	16.0802	-36.0802
4580.67	16.5465	-36.5465
4580.83	17.0026	-37.0026
4581	17.4542	-37.4542
4581.17	17.8819	-37.8819
4581.33	18.2793	-38.2793
4581.5	18.6615	-38.6615
4581.67	19.0361	-39.0361
4581.83	19.4073	-39.4073
4582	19.7772	-39.7772
4582.17	20.0679	-40.0679
4582.33	20.2531	-40.2531
4582.5	20.3816	-40.3816
4582.67	20.4791	-40.4791
4582.83	20.5591	-40.5591
4583	20.6288	-40.6288
4583.17	20.6473	-40.6473
4583.33	20.601	-40.601
4583.5	20.5192	-40.5192
4583.67	20.4171	-40.4171
4583.83	20.3027	-40.3027
4584	20.1805	-40.1805
4584.17	20.0531	-40.0531
4584.33	19.9217	-39.9217
4584.5	19.7871	-39.7871
4584.67	19.65	-39.65
4584.83	19.5106	-39.5106
4585	19.3691	-39.3691
4585.17	19.2371	-39.2371
4585.33	19.1183	-39.1183
4585.5	19.0061	-39.0061
4585.67	18.8967	-38.8967
4585.83	18.7883	-38.7883
4586	18.6801	-38.6801
4586.17	18.5941	-38.5941
4586.33	18.5377	-38.5377
4586.5	18.4968	-38.4968
4586.67	18.4641	-38.4641
4586.83	18.4357	-38.4357
4587	18.4096	-38.4096
4587.17	18.4299	-38.4299
4587.33	18.5114	-38.5114
4587.5	18.626	-38.626
4587.67	18.7589	-38.7589
4587.83	18.9024	-38.9024
4588	19.0523	-39.0523
4588.17	19.1497	-39.1497
4588.33	19.1739	-39.1739
4588.5	19.1591	-39.1591
4588.67	19.1227	-39.1227
4588.83	19.074	-39.074
4589	19.0183	-39.0183
4589.17	19.0256	-39.0256
4589.33	19.1211	-39.1211
4589.5	19.2639	-39.2639
4589.67	19.4326	-39.4326
4589.83	19.6163	-39.6163
4590	19.8087	-39.8087
4590.17	19.8144	-39.8144
4590.33	19.5657	-39.5657
4590.5	19.1798	-39.1798
4590.67	18.7174	-38.7174
4590.83	18.2108	-38.2108
4591	17.6772	-37.6772
4591.17	16.9904	-36.9904
4591.33	16.1092	-36.1092
4591.5	15.1202	-35.1202
4591.67	14.0684	-34.0684
4591.83	12.9778	-32.9778
4592	11.8615	-31.8615
4592.17	10.8063	-30.8063
4592.33	9.84286	-29.8429
4592.5	8.92525	-28.9252
4592.67	8.02971	-28.0297
4592.83	7.14366	-27.1437
4593	6.26036	-26.2604
4593.17	5.33137	-25.3314
4593.33	4.33897	-24.339
4593.5	3.31001	-23.31
4593.67	2.25845	-22.2584
4593.83	1.19154	-21.1915
4594	0.11347	-20.1135
4594.17	-0.849539	-19.1505
4594.33	-1.65342	-18.3466
4594.5	-2.37392	-17.6261
4594.67	-3.05039	-16.9496
4594.83	-3.70358	-16.2964
4595	-4.34473	-15.6553
4595.17	-4.99112	-15.0089
4595.33	-5.65007	-14.3499
4595.5	-6.31653	-13.6835
4595.67	-6.988	-13.012
4595.83	-7.66327	-12.3367
4596	-8.34147	-11.6585
4596.17	-8.8644	-11.1356
4596.33	-9.1773	-10.8227
4596.5	-9.37751	-10.6225
4596.67	-9.51561	-10.4844
4596.83	-9.61833	-10.3817
4597	-9.69998	-10.3
4597.17	-9.72367	-10.2763
4597.33	-9.67796	-10.322
4597.5	-9.59339	-10.4066
4597.67	-9.48585	-10.5141
4597.83	-9.3639	-10.6361
4598	-9.2323	-10.7677
4598.17	-9.17277	-10.8272
4598.33	-9.21406	-10.7859
4598.5	-9.30833	-10.6917
4598.67	-9.43088	-10.5691
4598.83	-9.56867	-10.4313
4599	-9.71474	-10.2853
4599.17	-9.79743	-10.2026
4599.33	-9.79136	-10.2086
4599.5	-9.73719	-10.2628
4599.67	-9.65582	-10.3442
4599.83	-9.55836	-10.4416
4600	-9.45086	-10.5491
4600.17	-9.39282	-10.6072
4600.33	-9.40578	-10.5942
4600.5	-9.45588	-10.5441
4600.67	-9.52557	-10.4744
4600.83	-9.60577	-10.3942
4601	-9.69147	-10.3085
4601.17	-9.76876	-10.2312
4601.33	-9.83222	-10.1678
4601.5	-9.88792	-10.1121
4601.67	-9.93909	-10.0609
4601.83	-9.98735	-10.0127
4602	-10.0335	-9.96651
4602.17	-10.0441	-9.9559
4602.33	-10.0079	-9.99214
4602.5	-9.94569	-10.0543
4602.67	-9.86849	-10.1315
4602.83	-9.78212	-10.2179
4603	-9.68965	-10.3104
4603.17	-9.5816	-10.4184
4603.33	-9.45484	-10.5452
4603.5	-9.31697	-10.683
4603.67	-9.17204	-10.828
4603.83	-9.02215	-10.9778
4604	-8.86835	-11.1317
4604.17	-8.65507	-11.3449
4604.33	-8.36288	-11.6371
4604.5	-8.02698	-11.973
4604.67	-7.6656	-12.3344
4604.83	-7.28841	-12.7116
4605	-6.90064	-13.0994
4605.17	-6.55044	-13.4496
4605.33	-6.25489	-13.7451
4605.5	-5.98719	-14.0128
4605.67	-5.73334	-14.2667
4605.83	-5.48623	-14.5138
4606	-5.24172	-14.7583
4606.17	-4.95271	-15.0473
4606.33	-4.60244	-15.3976
4606.5	-4.21811	-15.7819
4606.67	-3.81373	-16.1863
4606.83	-3.39679	-16.6032
4607	-2.97129	-17.0287
4607.17	-2.46035	-17.5397
4607.33	-1.83793	-18.1621
4607.5	-1.1535	-18.8465
4607.67	-0.43286	-19.5671
4607.83	0.310437	-20.3104
4608	1.06894	-21.0689
4608.17	1.71429	-21.7143
4608.33	2.2013	-22.2013
4608.5	2.60528	-22.6053
4608.67	2.96507	-22.9651
4608.83	3.3013	-23.3013
4609	3.62495	-23.625
4609.17	3.99854	-23.9985
4609.33	4.44499	-24.445
4609.5	4.93112	-24.9311
4609.67	5.44002	-25.44
4609.83	5.96277	-25.9628
4610	6.49443	-26.4944
4610.17	6.9876	-26.9876
4610.33	7.42504	-27.425
4610.5	7.83381	-27.8338
4610.67	8.22792	-28.2279
4610.83	8.6147	-28.6147
4611	8.99809	-28.9981
4611.17	9.33499	-29.335
4611.33	9.61108	-29.6111
4611.5	9.85491	-29.8549
4611.67	10.0813	-30.0813
4611.83	10.2981	-30.2981
4612	10.5094	-30.5094
4612.17	10.6841	-30.6841
4612.33	10.8113	-30.8113
4612.5	10.913	-30.913
4612.67	11.0003	-31.0003
4612.83	11.0794	-31.0794
4613	11.1533	-31.1533
4613.17	11.1335	-31.1335
4613.33	10.99	-30.99
4613.5	10.7791	-30.7791
4613.67	10.53	-30.53
4613.83	10.2583	-30.2583
4614	9.97219	-29.9722
4614.17	9.58604	-29.586
4614.33	9.0714	-29.0714
4614.5	8.4854	-28.4854
4614.67	7.85785	-27.8578
4614.83	7.20462	-27.2046
4615	6.53429	-26.5343
4615.17	5.81758	-25.8176
4615.33	5.04599	-25.046
4615.5	4.2417	-24.2417
4615.67	3.4165	-23.4165
4615.83	2.57677	-22.5768
4616	1.726	-21.726
4616.17	0.922857	-20.9229
4616.33	0.187602	-20.1876
4616.5	-0.513672	-19.4863
4616.67	-1.19855	-18.8014
4616.83	-1.87635	-18.1237
4617	-2.55181	-17.4482
4617.17	-3.20554	-16.7945
4617.33	-3.8307	-16.1693
4617.5	-4.44217	-15.5578
4617.67	-5.0477	-14.9523
4617.83	-5.65135	-14.3486
4618	-6.25528	-13.7447
4618.17	-6.79281	-13.2072
4618.33	-7.24136	-12.7586
4618.5	-7.64315	-12.3569
4618.67	-8.02003	-11.98
4618.83	-8.3836	-11.6164
4619	-8.7399	-11.2601
4619.17	-9.08157	-10.9184
4619.33	-9.4063	-10.5937
4619.5	-9.7222	-10.2778
4619.67	-10.0336	-9.96645
4619.83	-10.3426	-9.65735
4620	-10.6509	-9.3491
4620.17	-10.9927	-9.00732
4620.33	-11.3801	-8.61989
4620.5	-11.7926	-8.20736
4620.67	-12.2196	-7.78045
4620.83	-12.6553	-7.3447
4621	-13.0969	-6.90308
4621.17	-13.667	-6.33304
4621.33	-14.4072	-5.59284
4621.5	-15.2405	-4.75949
4621.67	-16.127	-3.87298
4621.83	-17.0454	-2.95465
4622	-17.9842	-2.01582
4622.17	-18.7447	-1.25532
4622.33	-19.2576	-0.742427
4622.5	-19.6389	-0.361098
4622.67	-19.9489	-0.0510596
4622.83	-20.2195	0.219485
4623	-20.4676	0.467594
4623.17	-20.8043	0.804338
4623.33	-21.2699	1.26991
4623.5	-21.8044	1.80441
4623.67	-22.3772	2.3772
4623.83	-22.972	2.97198
4624	-23.5801	3.58005
4624.17	-22.9518	2.95181
4624.33	-20.6596	0.6596
4624.5	-17.466	-2.534
4624.67	-13.7681	-6.23191
4624.83	-9.77593	-10.2241
4625	-5.6029	-14.3971
4625.17	-2.46502	-17.535
4625.33	-0.791611	-19.2084
4625.5	0.105761	-20.1058
4625.67	0.584189	-20.5842
4625.83	0.831967	-20.832
4626	0.949776	-20.9498
4626.17	1.04885	-21.0488
4626.33	1.17876	-21.1788
4626.5	1.32171	-21.3217
4626.67	1.46949	-21.4695
4626.83	1.61835	-21.6183
4627	1.7667	-21.7667
4627.17	1.84608	-21.8461
4627.33	1.8332	-21.8332
4627.5	1.76994	-21.7699
4627.67	1.67811	-21.6781
4627.83	1.56939	-21.5694
4628	1.45013	-21.4501
4628.17	1.43706	-21.4371
4628.33	1.57088	-21.5709
4628.5	1.78311	-21.7831
4628.67	2.03852	-22.0385
4628.83	2.31841	-22.3184
4629	2.61245	-22.6125
4629.17	2.89328	-22.8933
4629.33	3.14952	-23.1495
4629.5	3.3935	-23.3935
4629.67	3.63145	-23.6315
4629.83	3.86664	-23.8666
4630	4.10077	-24.1008
4630.17	4.36861	-24.3686
4630.33	4.68232	-24.6823
4630.5	5.02116	-25.0212
4630.67	5.37454	-25.3745
4630.83	5.73676	-25.7368
4631	6.10476	-26.1048
4631.17	6.40897	-26.409
4631.33	6.62514	-26.6251
4631.5	6.79457	-26.7946
4631.67	6.93858	-26.9386
4631.83	7.06844	-27.0684
4632	7.19028	-27.1903
4632.17	7.35239	-27.3524
4632.33	7.57243	-27.5724
4632.5	7.82351	-27.8235
4632.67	8.09173	-28.0917
4632.83	8.36987	-28.3699
4633	8.65393	-28.6539
4633.17	8.91941	-28.9194
4633.33	9.15711	-29.1571
4633.5	9.38038	-29.3804
4633.67	9.59603	-29.596
4633.83	9.80772	-29.8077
4634	10.0172	-30.0172
4634.17	10.2145	-30.2145
4634.33	10.3962	-30.3962
4634.5	10.5695	-30.5695
4634.67	10.7382	-30.7382
4634.83	10.9044	-30.9044
4635	11.0693	-31.0693
4635.17	11.2671	-31.2671
4635.33	11.5099	-31.5099
4635.5	11.7771	-31.7771
4635.67	12.058	-32.058
4635.83	12.3469	-32.3469
4636	12.6407	-32.6407
4636.17	12.9038	-32.9038
4636.33	13.1237	-33.1237
4636.5	13.3208	-33.3208
4636.67	13.5055	-33.5055
4636.83	13.6834	-33.6834
4637	13.8573	-33.8573
4637.17	13.9953	-33.9953
4637.33	14.0863	-34.0863
4637.5	14.1519	-34.1519
4637.67	14.203	-34.203
4637.83	14.2457	-34.2457
4638	14.2831	-34.2831
4638.17	14.2718	-34.2718
4638.33	14.1973	-34.1973
4638.5	14.0878	-34.0878
4638.67	13.9583	-33.9583
4638.83	13.8167	-33.8167
4639	13.6671	-33.6671
4639.17	13.3762	-33.3762
4639.33	12.8989	-32.8989
4639.5	12.3194	-32.3194
4639.67	11.6815	-31.6815
4639.83	11.0084	-31.0084
4640	10.3127	-30.3127
4640.17	9.56756	-29.5676
4640.33	8.7651	-28.7651
4640.5	7.9285	-27.9285
4640.67	7.06999	-27.07
4640.83	6.19611	-26.1961
4641	5.31047	-25.3105
4641.17	4.33589	-24.3359
4641.33	3.24666	-23.2467
4641.5	2.09212	-22.0921
4641.67	0.898074	-20.8981
4641.83	-0.321841	-19.6782
4642	-1.5601	-18.4399
4642.17	-2.69955	-17.3004
4642.33	-3.69887	-16.3011
4642.5	-4.62626	-15.3737
4642.67	-5.51714	-14.4829
4642.83	-6.39006	-13.6099
4643	-7.25492	-12.7451
4643.17	-8.09463	-11.9054
4643.33	-8.90421	-11.0958
4643.5	-9.69933	-10.3007
4643.67	-10.4882	-9.51181
4643.83	-11.2752	-8.72485
4644	-12.0626	-7.93742
4644.17	-12.5236	-7.4764
4644.33	-12.547	-7.45303
4644.5	-12.3344	-7.66563
4644.67	-11.991	-8.00898
4644.83	-11.5726	-8.42737
4645	-11.1092	-8.89078
4645.17	-10.6852	-9.31477
4645.33	-10.333	-9.66703
4645.5	-10.0161	-9.98392
4645.67	-9.71598	-10.284
4645.83	-9.42313	-10.5769
4646	-9.13255	-10.8675
4646.17	-9.2265	-10.7735
4646.33	-9.83492	-10.1651
4646.5	-10.721	-9.27904
4646.67	-11.7613	-8.23867
4646.83	-12.8907	-7.10932
4647	-14.074	-5.92599
4647.17	-14.8167	-5.18332
4647.33	-14.9455	-5.05454
4647.5	-14.7459	-5.25411
4647.67	-14.3662	-5.63376
4647.83	-13.8848	-6.11523
4648	-13.3435	-6.65645
4648.17	-12.9121	-7.08791
4648.33	-12.6538	-7.34622
4648.5	-12.4853	-7.51468
4648.67	-12.3639	-7.63606
4648.83	-12.2672	-7.73275
4649	-12.1833	-7.81666
4649.17	-12.2417	-7.75832
4649.33	-12.4854	-7.51465
4649.5	-12.829	-7.17105
4649.67	-13.228	-6.77201
4649.83	-13.659	-6.34102
4650	-14.109	-5.89101
4650.17	-14.3678	-5.63218
4650.33	-14.3616	-5.63836
4650.5	-14.2132	-5.78679
4650.67	-13.9863	-6.01375
4650.83	-13.7145	-6.2855
4651	-13.4158	-6.58418
4651.17	-13.0439	-6.9561
4651.33	-12.5845	-7.4155
4651.5	-12.0756	-7.9244
4651.67	-11.5371	-8.46288
4651.83	-10.9797	-9.02034
4652	-10.4093	-9.59071
4652.17	-9.84014	-10.1599
4652.33	-9.27829	-10.7217
4652.5	-8.71787	-11.2821
4652.67	-8.15596	-11.844
4652.83	-7.59112	-12.4089
4653	-7.02246	-12.9775
4653.17	-6.31417	-13.6858
4653.33	-5.41951	-14.5805
4653.5	-4.42181	-15.5782
4653.67	-3.36449	-16.6355
4653.83	-2.2705	-17.7295
4654	-1.15228	-18.8477
4654.17	-0.175116	-19.8249
4654.33	0.603198	-20.6032
4654.5	1.27742	-21.2774
4654.67	1.89697	-21.897
4654.83	2.48779	-22.4878
4655	3.06381	-23.0638
4655.17	3.58737	-23.5874
4655.33	4.04712	-24.0471
4655.5	4.47323	-24.4732
4655.67	4.88144	-24.8814
4655.83	5.28025	-25.2802
4656	5.67425	-25.6742
4656.17	6.04339	-26.0434
4656.33	6.38135	-26.3813
4656.5	6.70294	-26.7029
4656.67	7.01586	-27.0159
4656.83	7.32428	-27.3243
4657	7.63043	-27.6304
4657.17	7.93559	-27.9356
4657.33	8.24047	-28.2405
4657.5	8.54549	-28.5455
4657.67	8.85092	-28.8509
4657.83	9.1569	-29.1569
4658	9.46354	-29.4635
4658.17	9.7256	-29.7256
4658.33	9.92774	-29.9277
4658.5	10.0978	-30.0978
4658.67	10.2502	-30.2502
4658.83	10.3925	-30.3925
4659	10.529	-30.529
4659.17	10.6279	-30.6279
4659.33	10.679	-30.679
4659.5	10.7039	-30.7039
4659.67	10.7137	-30.7137
4659.83	10.7145	-30.7145
4660	10.7095	-30.7095
4660.17	10.6894	-30.6894
4660.33	10.6512	-30.6512
4660.5	10.6025	-30.6025
4660.67	10.5471	-30.5471
4660.83	10.4874	-30.4874
4661	10.4243	-30.4243
4661.17	10.37	-30.37
4661.33	10.3287	-30.3287
4661.5	10.2937	-30.2937
4661.67	10.2616	-30.2616
4661.83	10.2304	-30.2304
4662	10.1993	-30.1993
4662.17	10.1565	-30.1565
4662.33	10.0976	-30.0976
4662.5	10.0297	-30.0297
4662.67	9.95617	-29.9562
4662.83	9.879	-29.879
4663	9.79934	-29.7993
4663.17	9.75107	-29.7511
4663.33	9.74658	-29.7466
4663.5	9.76513	-29.7651
4663.67	9.79599	-29.796
4663.83	9.8335	-29.8335
4664	9.87459	-29.8746
4664.17	9.83838	-29.8384
4664.33	9.69695	-29.697
4664.5	9.49834	-29.4983
4664.67	9.26762	-29.2676
4664.83	9.01782	-29.0178
4665	8.75607	-28.7561
4665.17	8.3055	-28.3055
4665.33	7.60625	-27.6063
4665.5	6.77071	-26.7707
4665.67	5.85749	-25.8575
4665.83	4.89766	-24.8977
4666	3.90815	-23.9082
4666.17	3.04501	-23.045
4666.33	2.36393	-22.3639
4666.5	1.77749	-21.7775
4666.67	1.24074	-21.2407
4666.83	0.729752	-20.7298
4667	0.232122	-20.2321
4667.17	-0.180548	-19.8195
4667.33	-0.484436	-19.5156
4667.5	-0.730325	-19.2697
4667.67	-0.944694	-19.0553
4667.83	-1.14171	-18.8583
4668	-1.32886	-18.6711
4668.17	-1.31834	-18.6817
4668.33	-1.0466	-18.9534
4668.5	-0.633054	-19.3669
4668.67	-0.139999	-19.86
4668.83	0.399523	-20.3995
4669	0.967312	-20.9673
4669.17	1.36173	-21.3617
4669.33	1.51118	-21.5112
4669.5	1.53057	-21.5306
4669.67	1.47951	-21.4795
4669.83	1.38928	-21.3893
4670	1.27659	-21.2766
4670.17	1.1172	-21.1172
4670.33	0.903881	-20.9039
4670.5	0.660627	-20.6606
4670.67	0.399877	-20.3999
4670.83	0.128339	-20.1283
4671	-0.150321	-19.8497
4671.17	-0.354694	-19.6453
4671.33	-0.456679	-19.5433
4671.5	-0.504122	-19.4959
4671.67	-0.52187	-19.4781
4671.83	-0.523033	-19.477
4672	-0.514426	-19.4856
4672.17	-0.45516	-19.5448
4672.33	-0.331456	-19.6685
4672.5	-0.172405	-19.8276
4672.67	0.00678694	-20.0068
4672.83	0.198112	-20.1981
4673	0.397192	-20.3972
4673.17	0.612855	-20.6129
4673.33	0.847657	-20.8477
4673.5	1.09375	-21.0938
4673.67	1.34708	-21.3471
4673.83	1.6054	-21.6054
4674	1.86751	-21.8675
4674.17	2.43832	-22.4383
4674.33	3.42164	-23.4216
4674.5	4.62968	-24.6297
4674.67	5.96478	-25.9648
4674.83	7.37499	-27.375
4675	8.83242	-28.8324
4675.17	9.99362	-29.9936
4675.33	10.7376	-30.7376
4675.5	11.2611	-31.2611
4675.67	11.6658	-31.6658
4675.83	12.0056	-32.0056
4676	12.3094	-32.3094
4676.17	12.6944	-32.6944
4676.33	13.2043	-33.2043
4676.5	13.7812	-33.7812
4676.67	14.3955	-34.3955
4676.83	15.0317	-35.0317
4677	15.6814	-35.6814
4677.17	16.2951	-36.2951
4677.33	16.8547	-36.8547
4677.5	17.3866	-37.3866
4677.67	17.9046	-37.9046
4677.83	18.4159	-38.4159
4678	18.9244	-38.9244
4678.17	19.4433	-39.4433
4678.33	19.9778	-39.9778
4678.5	20.5216	-40.5216
4678.67	21.0714	-41.0714
4678.83	21.6254	-41.6254
4679	22.1829	-42.1829
4679.17	22.6526	-42.6526
4679.33	23.0035	-43.0035
4679.5	23.291	-43.291
4679.67	23.5439	-43.5439
4679.83	23.7775	-43.7775
4680	24	-44
4680.17	24.2384	-44.2384
4680.33	24.5031	-44.5031
4680.5	24.7815	-44.7815
4680.67	25.0673	-45.0673
4680.83	25.3572	-45.3572
4681	25.6495	-45.6495
4681.17	25.9658	-45.9658
4681.33	26.3133	-46.3133
4681.5	26.678	-46.678
4681.67	27.0524	-47.0524
4681.83	27.4326	-47.4326
4682	27.8165	-47.8165
4682.17	28.1691	-48.1691
4682.33	28.4779	-48.4779
4682.5	28.7637	-48.7637
4682.67	29.0368	-49.0368
4682.83	29.3031	-49.3031
4683	29.5654	-49.5654
4683.17	29.8593	-49.8593
4683.33	30.1975	-50.1975
4683.5	30.5594	-50.5594
4683.67	30.9346	-50.9346
4683.83	31.3175	-51.3175
4684	31.7052	-51.7052
4684.17	32.0845	-52.0845
4684.33	32.451	-52.451
4684.5	32.8109	-52.8109
4684.67	33.1676	-53.1676
4684.83	33.5227	-53.5227
4685	33.8773	-53.8773
4685.17	34.1073	-54.1073
4685.33	34.1705	-54.1705
4685.5	34.1434	-54.1434
4685.67	34.0657	-54.0657
4685.83	33.9588	-53.9588
4686	33.834	-53.834
4686.17	33.573	-53.573
4686.33	33.1368	-53.1368
4686.5	32.6039	-52.6039
4686.67	32.015	-52.015
4686.83	31.3922	-51.3922
4687	30.7472	-50.7472
4687.17	30.1885	-50.1885
4687.33	29.7542	-49.7542
4687.5	29.3844	-49.3844
4687.67	29.0477	-49.0477
4687.83	28.7277	-48.7277
4688	28.4156	-48.4156
4688.17	28.152	-48.152
4688.33	27.9497	-47.9497
4688.5	27.7796	-47.7796
4688.67	27.6262	-47.6262
4688.83	27.4816	-47.4816
4689	27.3413	-47.3413
4689.17	27.1349	-47.1349
4689.33	26.8381	-46.8381
4689.5	26.4915	-46.4915
4689.67	26.1165	-46.1165
4689.83	25.7242	-45.7242
4690	25.3208	-45.3208
4690.17	24.9433	-44.9433
4690.33	24.6053	-44.6053
4690.5	24.287	-44.287
4690.67	23.978	-43.978
4690.83	23.6732	-43.6732
4691	23.3694	-43.3694
4691.17	23.0542	-43.0542
4691.33	22.7225	-42.7225
4691.5	22.381	-42.381
4691.67	22.0331	-42.0331
4691.83	21.6803	-41.6803
4692	21.3238	-41.3238
4692.17	20.8509	-40.8509
4692.33	20.2232	-40.2232
4692.5	19.5105	-39.5105
4692.67	18.7488	-38.7488
4692.83	17.9576	-37.9576
4693	17.1471	-37.1471
4693.17	16.3908	-36.3908
4693.33	15.7153	-35.7153
4693.5	15.0808	-35.0808
4693.67	14.4666	-34.4666
4693.83	13.8619	-33.8619
4694	13.261	-33.261
4694.17	13.1362	-33.1362
4694.33	13.648	-33.648
4694.5	14.5037	-34.5037
4694.67	15.551	-35.551
4694.83	16.7092	-36.7092
4695	17.9344	-37.9344
4695.17	18.9772	-38.9772
4695.33	19.7462	-39.7462
4695.5	20.3729	-40.3729
