Time [h]	Room.AirTemperature [C]	EmbeddedObject(id=1001).ShadingFactor [---]	EmbeddedObject(id=1002).ShadingFactor [---]	EmbeddedObject(id=1003).ShadingFactor [---]	EmbeddedObject(id=1004).ShadingFactor [---]	Model(id=2000).ShadingControlValue [---]	Model(id=2001).ShadingControlValue [---]
4344	20	0.6	1	1	1	0	0
4344.17	18.8841	0.6	1	1	1	0	0
4344.33	18.1121	0.6	1	1	1	0	0
4344.5	17.5505	0.6	1	1	1	0	0
4344.67	17.1183	0.6	1	1	1	0	0
4344.83	16.7657	0.6	1	1	1	0	0
4345	16.4621	0.6	1	1	1	0	0
4345.17	16.2027	0.6	1	1	1	0	0
4345.33	15.9822	0.6	1	1	1	0	0
4345.5	15.7859	0.6	1	1	1	0	0
4345.67	15.6047	0.6	1	1	1	0	0
4345.83	15.4328	0.6	1	1	1	0	0
4346	15.2668	0.6	1	1	1	0	0
4346.17	15.1159	0.6	1	1	1	0	0
4346.33	14.9842	0.6	1	1	1	0	0
4346.5	14.8643	0.6	1	1	1	0	0
4346.67	14.7753	0.6	1	1	1	0	0
4346.83	14.7262	0.6	1	1	1	0	0
4347	14.7026	0.6	1	1	1	0	0
4347.17	14.714	0.6	1	1	1	0	0
4347.33	14.7632	0.6	1	1	1	0	0
4347.5	14.8365	0.6	1	1	1	0	0
4347.67	14.9448	0.6	1	1	1	0	0
4347.83	15.0927	0.6	1	1	1	0	0
4348	15.2663	0.6	1	1	1	0	0
4348.17	15.4682	0.6	1	1	1	0	0
4348.33	15.6986	0.6	1	1	1	0	0
4348.5	15.9474	0.6	1	1	1	0	0
4348.67	16.3255	0.6	1	1	1	0	0
4348.83	16.8882	0.6	1	1	1	0	0
4349	17.5699	0.6	1	1	1	0	0
4349.17	18.3226	0.6	1	1	1	0	0
4349.33	19.1171	0.6	1	1	1	0	0
4349.5	19.9407	0.6	1	1	1	0	0
4349.67	21.3243	0.6	1	1	1	0	0
4349.83	23.5323	0.6	1	1	1	0	0
4350	26.2673	0.6	1	1	1	0	0
4350.17	29.3721	0.6	1	1	1	0	0
4350.33	32.7433	0.6	1	1	1	0	0
4350.5	36.2905	0.6	1	1	1	0	0
4350.67	39.4338	0.6	1	1	1	0	0
4350.83	41.8766	0.6	1	1	1	0	0
4351	43.8816	0.6	1	1	1	0	0
4351.17	45.607	0.6	1	1	1	0	0
4351.33	47.1525	0.6	1	1	1	0	0
4351.5	48.5862	0.6	1	1	1	0	0
4351.67	49.806	0.6	1	1	1	0	0
4351.83	50.7658	0.6	1	1	1	0	0
4352	51.5602	0.6	1	1	1	0	0
4352.17	52.2347	0.6	1	1	1	0	0
4352.33	52.82	0.6	1	1	1	0	0
4352.5	53.2354	0.6	0.4	0.8	1	1	0
4352.67	51.234	0.6	0.4	0.8	1	1	0
4352.83	50.7169	0.6	0.4	0.8	1	1	0
4353	51.1499	0.6	0.4	0.8	1	1	0
4353.17	52.2079	0.6	0.4	0.8	1	1	0
4353.33	53.6841	0.6	0.4	0.8	1	1	0
4353.5	55.4328	0.6	0.4	0.8	1	1	0
4353.67	57.3199	0.6	0.4	0.8	1	1	0
4353.83	59.2606	0.6	0.4	0.8	1	1	0
4354	61.2329	0.6	0.4	0.8	1	1	0
4354.17	63.2324	0.6	0.4	0.8	1	1	0
4354.33	65.2571	0.6	0.4	0.8	1	1	0
4354.5	67.3012	0.6	0.4	0.8	1	1	0
4354.67	69.2349	0.6	0.4	0.8	1	1	0
4354.83	70.9865	0.6	0.4	0.8	1	1	0
4355	72.6068	0.6	0.4	0.8	1	1	0
4355.17	74.123	0.6	0.4	0.8	1	1	0
4355.33	75.5567	0.6	0.4	0.8	1	1	0
4355.5	76.9366	0.6	0.4	0.8	1	1	0
4355.67	77.7134	0.6	0.4	0.8	1	1	0
4355.83	77.6211	0.6	0.4	0.8	1	1	0
4356	76.9797	0.6	0.4	0.8	1	1	0
4356.17	75.974	0.6	0.4	0.8	1	1	0
4356.33	74.7243	0.6	0.4	0.8	1	1	0
4356.5	73.333	0.6	0.4	0.8	1	1	0
4356.67	72.3107	0.6	0.4	0.8	1	1	0
4356.83	71.9282	0.6	0.4	0.8	1	1	0
4357	71.9767	0.6	0.4	0.8	1	1	0
4357.17	72.3377	0.6	0.4	0.8	1	1	0
4357.33	72.94	0.6	0.4	0.8	1	1	0
4357.5	73.7232	0.6	0.4	0.8	1	1	0
4357.67	74.7224	0.6	0.4	0.8	1	1	0
4357.83	75.8827	0.6	0.4	0.8	1	1	0
4358	77.1106	0.6	0.4	0.8	1	1	0
4358.17	78.3441	0.6	0.4	0.8	1	1	0
4358.33	79.5458	0.6	0.4	0.8	1	1	0
4358.5	80.699	0.6	0.4	0.8	1	1	0
4358.67	81.1793	0.6	0.4	0.8	1	1	0
4358.83	80.6923	0.6	0.4	0.8	1	1	0
4359	79.5791	0.6	0.4	0.8	1	1	0
4359.17	78.0615	0.6	0.4	0.8	1	1	0
4359.33	76.2701	0.6	0.4	0.8	1	1	0
4359.5	74.2895	0.6	0.4	0.8	1	1	0
4359.67	72.363	0.6	0.4	0.8	1	1	0
4359.83	70.6215	0.6	0.4	0.8	1	1	0
4360	68.9891	0.6	0.4	0.8	1	1	0
4360.17	67.3773	0.6	0.4	0.8	1	1	0
4360.33	65.7418	0.6	0.4	0.8	1	1	0
4360.5	64.0884	0.6	0.4	0.8	1	1	0
4360.67	62.8382	0.6	0.4	0.8	1	1	0
4360.83	62.2119	0.6	0.4	0.8	1	1	0
4361	61.9926	0.6	0.4	0.8	1	1	0
4361.17	62.0832	0.6	0.4	0.8	1	1	0
4361.33	62.4211	0.6	0.4	0.8	1	1	0
4361.5	62.9316	0.6	0.4	0.8	1	1	0
4361.67	62.7634	0.6	0.4	0.8	1	1	0
4361.83	61.4631	0.6	0.4	0.8	1	1	0
4362	59.4238	0.6	0.4	0.8	1	1	0
4362.17	56.8471	0.6	1	1	1	0	0
4362.33	54.9539	0.6	1	1	1	0	0
4362.5	52.2382	0.6	1	1	1	0	0
4362.67	49.5952	0.6	1	1	1	0	0
4362.83	47.5248	0.6	1	1	1	0	0
4363	45.812	0.6	1	1	1	0	0
4363.17	44.3255	0.6	1	1	1	0	0
4363.33	42.9833	0.6	1	1	1	0	0
4363.5	41.7316	0.6	1	1	1	0	0
4363.67	40.4633	0.6	1	1	1	0	0
4363.83	39.1174	0.6	1	1	1	0	0
4364	37.7218	0.6	1	1	1	0	0
4364.17	36.3	0.6	1	1	1	0	0
4364.33	34.8666	0.6	1	1	1	0	0
4364.5	33.4081	0.6	1	1	1	0	0
4364.67	32.2103	0.6	1	1	1	0	0
4364.83	31.3639	0.6	1	1	1	0	0
4365	30.7412	0.6	1	1	1	0	0
4365.17	30.2713	0.6	1	1	1	0	0
4365.33	29.9081	0.6	1	1	1	0	0
4365.5	29.6144	0.6	1	1	1	0	0
4365.67	29.3672	0.6	1	1	1	0	0
4365.83	29.1515	0.6	1	1	1	0	0
4366	28.9578	0.6	1	1	1	0	0
4366.17	28.7983	0.6	1	1	1	0	0
4366.33	28.6776	0.6	1	1	1	0	0
4366.5	28.5827	0.6	1	1	1	0	0
4366.67	28.5055	0.6	1	1	1	0	0
4366.83	28.4407	0.6	1	1	1	0	0
4367	28.385	0.6	1	1	1	0	0
4367.17	28.3109	0.6	1	1	1	0	0
4367.33	28.205	0.6	1	1	1	0	0
4367.5	28.0804	0.6	1	1	1	0	0
4367.67	27.945	0.6	1	1	1	0	0
4367.83	27.8036	0.6	1	1	1	0	0
4368	27.6591	0.6	1	1	1	0	0
4368.17	27.5178	0.6	1	1	1	0	0
4368.33	27.3829	0.6	1	1	1	0	0
4368.5	27.2525	0.6	1	1	1	0	0
4368.67	27.1253	0.6	1	1	1	0	0
4368.83	27.0004	0.6	1	1	1	0	0
4369	26.8774	0.6	1	1	1	0	0
4369.17	26.7674	0.6	1	1	1	0	0
4369.33	26.6754	0.6	1	1	1	0	0
4369.5	26.5951	0.6	1	1	1	0	0
4369.67	26.5221	0.6	1	1	1	0	0
4369.83	26.4541	0.6	1	1	1	0	0
4370	26.3894	0.6	1	1	1	0	0
4370.17	26.3431	0.6	1	1	1	0	0
4370.33	26.3222	0.6	1	1	1	0	0
4370.5	26.3172	0.6	1	1	1	0	0
4370.67	26.3224	0.6	1	1	1	0	0
4370.83	26.3341	0.6	1	1	1	0	0
4371	26.3501	0.6	1	1	1	0	0
4371.17	26.3415	0.6	1	1	1	0	0
4371.33	26.2944	0.6	1	1	1	0	0
4371.5	26.2236	0.6	1	1	1	0	0
4371.67	26.2903	0.6	1	1	1	0	0
4371.83	26.5769	0.6	1	1	1	0	0
4372	27.2365	0.6	1	1	1	0	0
4372.17	28.4692	0.6	1	1	1	0	0
4372.33	29.7725	0.6	1	1	1	0	0
4372.5	31.1275	0.6	1	1	1	0	0
4372.67	32.8885	0.6	1	1	1	0	0
4372.83	35.2362	0.6	1	1	1	0	0
4373	37.9562	0.6	1	1	1	0	0
4373.17	40.9016	0.6	1	1	1	0	0
4373.33	43.9861	0.6	1	1	1	0	0
4373.5	47.1599	0.6	1	1	1	0	0
4373.67	50.1788	0.6	1	1	1	0	0
4373.83	52.8937	0.6	1	1	1	0	0
4374	55.4033	0.6	1	1	1	0	0
4374.17	57.8223	0.6	1	1	1	0	0
4374.33	60.2171	0.6	1	1	1	0	0
4374.5	62.5963	0.6	1	1	1	0	0
4374.67	64.7702	0.6	1	1	1	0	0
4374.83	64.4451	0.6	0.4	0.8	1	1	0
4375	60.7881	0.6	0.4	0.8	1	1	0
4375.17	58.9394	0.6	0.4	0.8	1	1	0
4375.33	58.2641	0.6	0.4	0.8	1	1	0
4375.5	58.3387	0.6	0.4	0.8	1	1	0
4375.67	58.9298	0.6	0.4	0.8	1	1	0
4375.83	59.8893	0.6	0.4	0.8	1	1	0
4376	61.0952	0.6	0.4	0.8	1	1	0
4376.17	62.4613	0.6	0.4	0.8	1	1	0
4376.33	63.9313	0.6	0.4	0.8	1	1	0
4376.5	65.4716	0.6	0.4	0.8	1	1	0
4376.67	66.2973	0.6	0.4	0.8	1	1	0
4376.83	66.0037	0.6	0.4	0.8	1	1	0
4377	64.9797	0.6	0.4	0.8	1	1	0
4377.17	63.3738	0.6	0.4	0.8	1	1	0
4377.33	61.2914	0.6	0.4	0.8	1	1	0
4377.5	58.8786	0.6	0.4	0.8	1	1	0
4377.67	56.6683	0.6	0.4	0.8	1	1	0
4377.83	54.9529	0.6	0.4	0.8	1	1	0
4378	53.5456	0.6	0.4	0.8	1	1	0
4378.17	52.3526	0.6	0.4	0.8	1	1	0
4378.33	51.3117	0.6	0.4	0.8	1	1	0
4378.5	50.3649	0.6	0.4	0.8	1	1	0
4378.67	49.8925	0.6	0.4	0.8	1	1	0
4378.83	50.0822	0.6	0.4	0.8	1	1	0
4379	50.6953	0.6	0.4	0.8	1	1	0
4379.17	51.5632	0.6	0.4	0.8	1	1	0
4379.33	52.583	0.6	0.4	0.8	1	1	0
4379.5	53.7055	0.6	0.4	0.8	1	1	0
4379.67	54.789	0.6	0.4	0.8	1	1	0
4379.83	55.7579	0.6	0.4	0.8	1	1	0
4380	56.6583	0.6	0.4	0.8	1	1	0
4380.17	57.5765	0.6	0.4	0.8	1	1	0
4380.33	58.5578	0.6	0.4	0.8	1	1	0
4380.5	59.582	0.6	0.4	0.8	1	1	0
4380.67	60.8144	0.6	0.4	0.8	1	1	0
4380.83	62.341	0.6	0.4	0.8	1	1	0
4381	64.0682	0.6	0.4	0.8	1	1	0
4381.17	65.9334	0.6	0.4	0.8	1	1	0
4381.33	67.9006	0.6	0.4	0.8	1	1	0
4381.5	69.9536	0.6	0.4	0.8	1	1	0
4381.67	71.6876	0.6	0.4	0.8	1	1	0
4381.83	72.8801	0.6	0.4	0.8	1	1	0
4382	73.7306	0.6	0.4	0.8	1	1	0
4382.17	74.3681	0.6	0.4	0.8	1	1	0
4382.33	74.8743	0.6	0.4	0.8	1	1	0
4382.5	75.2967	0.6	0.4	0.8	1	1	0
4382.67	74.6574	0.6	0.4	0.8	1	1	0
4382.83	72.4612	0.6	0.4	0.8	1	1	0
4383	69.2506	0.6	0.4	0.8	1	1	0
4383.17	65.2983	0.6	0.4	0.8	1	1	0
4383.33	60.7857	0.6	0.4	0.8	1	1	0
4383.5	56.6988	0.6	1	1	1	0	0
4383.67	53.6006	0.6	1	1	1	0	0
4383.83	52.1868	0.6	1	1	1	0	0
4384	51.8428	0.6	1	1	1	0	0
4384.17	52.1963	0.6	1	1	1	0	0
4384.33	53.0124	0.6	1	1	1	0	0
4384.5	54.1308	0.6	1	1	1	0	0
4384.67	54.9293	0.6	1	1	1	0	0
4384.83	55.0805	0.6	1	1	1	0	0
4385	54.8247	0.6	1	1	1	0	0
4385.17	54.3591	0.6	1	1	1	0	0
4385.33	53.8013	0.6	1	1	1	0	0
4385.5	53.1836	0.6	1	1	1	0	0
4385.67	53.5172	0.6	1	1	1	0	0
4385.83	55.335	0.6	1	1	1	0	0
4386	58.1332	0.6	1	1	1	0	0
4386.17	61.6086	0.6	1	1	1	0	0
4386.33	65.5739	0.6	1	1	1	0	1
4386.5	69.9024	0.6	1	1	1	0	1
4386.67	72.2146	0.6	1	1	1	0	1
4386.83	71.2351	0.6	1	1	1	0	1
4387	68.0908	0.6	1	1	1	0	1
4387.17	63.4805	0.6	1	1	1	0	0
4387.33	57.8567	0.6	1	1	1	0	0
4387.5	51.5497	0.6	1	1	1	0	0
4387.67	46.1412	0.6	1	1	1	0	0
4387.83	42.4668	0.6	1	1	1	0	0
4388	39.883	0.6	1	1	1	0	0
4388.17	37.974	0.6	1	1	1	0	0
4388.33	36.4815	0.6	1	1	1	0	0
4388.5	35.2537	0.6	1	1	1	0	0
4388.67	34.2578	0.6	1	1	1	0	0
4388.83	33.4655	0.6	1	1	1	0	0
4389	32.8053	0.6	1	1	1	0	0
4389.17	32.2546	0.6	1	1	1	0	0
4389.33	31.7956	0.6	1	1	1	0	0
4389.5	31.3971	0.6	1	1	1	0	0
4389.67	31.0508	0.6	1	1	1	0	0
4389.83	30.7502	0.6	1	1	1	0	0
4390	30.4808	0.6	1	1	1	0	0
4390.17	30.2585	0.6	1	1	1	0	0
4390.33	30.0892	0.6	1	1	1	0	0
4390.5	29.9548	0.6	1	1	1	0	0
4390.67	29.8439	0.6	1	1	1	0	0
4390.83	29.7494	0.6	1	1	1	0	0
4391	29.6666	0.6	1	1	1	0	0
4391.17	29.5834	0.6	1	1	1	0	0
4391.33	29.4934	0.6	1	1	1	0	0
4391.5	29.4004	0.6	1	1	1	0	0
4391.67	29.3065	0.6	1	1	1	0	0
4391.83	29.213	0.6	1	1	1	0	0
4392	29.1206	0.6	1	1	1	0	0
4392.17	29.0228	0.6	1	1	1	0	0
4392.33	28.9165	0.6	1	1	1	0	0
4392.5	28.8055	0.6	1	1	1	0	0
4392.67	28.6922	0.6	1	1	1	0	0
4392.83	28.578	0.6	1	1	1	0	0
4393	28.4636	0.6	1	1	1	0	0
4393.17	28.3473	0.6	1	1	1	0	0
4393.33	28.2281	0.6	1	1	1	0	0
4393.5	28.1075	0.6	1	1	1	0	0
4393.67	27.9864	0.6	1	1	1	0	0
4393.83	27.8653	0.6	1	1	1	0	0
4394	27.7443	0.6	1	1	1	0	0
4394.17	27.6352	0.6	1	1	1	0	0
4394.33	27.5434	0.6	1	1	1	0	0
4394.5	27.4626	0.6	1	1	1	0	0
4394.67	27.3888	0.6	1	1	1	0	0
4394.83	27.3196	0.6	1	1	1	0	0
4395	27.2534	0.6	1	1	1	0	0
4395.17	27.1871	0.6	1	1	1	0	0
4395.33	27.1189	0.6	1	1	1	0	0
4395.5	27.0497	0.6	1	1	1	0	0
4395.67	27.1204	0.6	1	1	1	0	0
4395.83	27.4024	0.6	1	1	1	0	0
4396	30.197	0.6	1	1	1	0	0
4396.17	36.3324	0.6	1	1	1	0	0
4396.33	38.138	0.6	1	1	1	0	0
4396.5	37.1489	0.6	1	1	1	0	0
4396.67	36.1377	0.6	1	1	1	0	0
4396.83	36.6561	0.6	1	1	1	0	0
4397	38.1423	0.6	1	1	1	0	0
4397.17	40.2366	0.6	1	1	1	0	0
4397.33	42.7165	0.6	1	1	1	0	0
4397.5	45.4415	0.6	1	1	1	0	0
4397.67	48.3735	0.6	1	1	1	0	0
4397.83	51.4595	0.6	1	1	1	0	0
4398	54.6264	0.6	1	1	1	0	0
4398.17	57.8751	0.6	1	1	1	0	0
4398.33	61.2014	0.6	1	1	1	0	0
4398.5	64.574	0.6	1	1	1	0	0
4398.67	65.5625	0.6	0.4	0.8	1	1	0
4398.83	61.8687	0.6	0.4	0.8	1	1	0
4399	59.9571	0.6	0.4	0.8	1	1	0
4399.17	59.1948	0.6	0.4	0.8	1	1	0
4399.33	59.1792	0.6	0.4	0.8	1	1	0
4399.5	59.6511	0.6	0.4	0.8	1	1	0
4399.67	60.3955	0.6	0.4	0.8	1	1	0
4399.83	61.2869	0.6	0.4	0.8	1	1	0
4400	62.2939	0.6	0.4	0.8	1	1	0
4400.17	63.3801	0.6	0.4	0.8	1	1	0
4400.33	64.521	0.6	0.4	0.8	1	1	0
4400.5	65.7088	0.6	0.4	0.8	1	1	0
4400.67	66.8609	0.6	0.4	0.8	1	1	0
4400.83	67.9395	0.6	0.4	0.8	1	1	0
4401	68.9755	0.6	0.4	0.8	1	1	0
4401.17	69.9701	0.6	0.4	0.8	1	1	0
4401.33	70.9202	0.6	0.4	0.8	1	1	0
4401.5	71.8259	0.6	0.4	0.8	1	1	0
4401.67	72.8226	0.6	0.4	0.8	1	1	0
4401.83	73.9751	0.6	0.4	0.8	1	1	0
4402	75.1997	0.6	0.4	0.8	1	1	0
4402.17	76.4371	0.6	0.4	0.8	1	1	0
4402.33	77.6565	0.6	0.4	0.8	1	1	0
4402.5	78.8645	0.6	0.4	0.8	1	1	0
4402.67	79.2179	0.6	0.4	0.8	1	1	0
4402.83	78.2852	0.6	0.4	0.8	1	1	0
4403	76.5119	0.6	0.4	0.8	1	1	0
4403.17	74.1362	0.6	0.4	0.8	1	1	0
4403.33	71.3206	0.6	0.4	0.8	1	1	0
4403.5	68.2309	0.6	0.4	0.8	1	1	0
4403.67	66.2604	0.6	0.4	0.8	1	1	0
4403.83	66.1095	0.6	0.4	0.8	1	1	0
4404	67.1101	0.6	0.4	0.8	1	1	0
4404.17	68.9988	0.6	0.4	0.8	1	1	0
4404.33	71.5984	0.6	0.4	0.8	1	1	0
4404.5	74.7125	0.6	0.4	0.8	1	1	0
4404.67	77.5899	0.6	0.4	0.8	1	1	0
4404.83	79.817	0.6	0.4	0.8	1	1	0
4405	81.6802	0.6	0.4	0.8	1	1	0
4405.17	83.2492	0.6	0.4	0.8	1	1	0
4405.33	84.5844	0.6	0.4	0.8	1	1	0
4405.5	85.7903	0.6	0.4	0.8	1	1	0
4405.67	86.5697	0.6	0.4	0.8	1	1	0
4405.83	86.6854	0.6	0.4	0.8	1	1	0
4406	86.3107	0.6	0.4	0.8	1	1	0
4406.17	85.6293	0.6	0.4	0.8	1	1	0
4406.33	84.7482	0.6	0.4	0.8	1	1	0
4406.5	83.6819	0.6	0.4	0.8	1	1	0
4406.67	82.5008	0.6	0.4	0.8	1	1	0
4406.83	81.279	0.6	0.4	0.8	1	1	0
4407	79.9956	0.6	0.4	0.8	1	1	0
4407.17	78.6034	0.6	0.4	0.8	1	1	0
4407.33	77.0652	0.6	0.4	0.8	1	1	0
4407.5	75.4117	0.6	0.4	0.8	1	1	0
4407.67	74.3063	0.6	0.4	0.8	1	1	0
4407.83	74.101	0.6	0.4	0.8	1	1	0
4408	74.4787	0.6	0.4	0.8	1	1	0
4408.17	75.2244	0.6	0.4	0.8	1	1	0
4408.33	76.2155	0.6	0.4	0.8	1	1	0
4408.5	77.3811	0.6	0.4	0.8	1	1	0
4408.67	77.4302	0.6	0.4	0.8	1	1	0
4408.83	75.6857	0.6	0.4	0.8	1	1	0
4409	72.7754	0.6	0.4	0.8	1	1	0
4409.17	69.0645	0.6	0.4	0.8	1	1	0
4409.33	65.2672	0.6	1	1	1	0	0
4409.5	61.2854	0.6	1	1	1	0	0
4409.67	57.6938	0.6	1	1	1	0	0
4409.83	55.298	0.6	1	1	1	0	0
4410	53.6598	0.6	1	1	1	0	0
4410.17	52.4876	0.6	1	1	1	0	0
4410.33	51.6017	0.6	1	1	1	0	0
4410.5	50.9035	0.6	1	1	1	0	0
4410.67	50.5757	0.6	1	1	1	0	0
4410.83	50.706	0.6	1	1	1	0	0
4411	51.132	0.6	1	1	1	0	0
4411.17	51.8029	0.6	1	1	1	0	0
4411.33	52.679	0.6	1	1	1	0	0
4411.5	53.6927	0.6	1	1	1	0	0
4411.67	53.9757	0.6	1	1	1	0	0
4411.83	53.069	0.6	1	1	1	0	0
4412	51.406	0.6	1	1	1	0	0
4412.17	49.226	0.6	1	1	1	0	0
4412.33	46.6878	0.6	1	1	1	0	0
4412.5	43.8289	0.6	1	1	1	0	0
4412.67	41.5021	0.6	1	1	1	0	0
4412.83	39.8768	0.6	1	1	1	0	0
4413	38.6939	0.6	1	1	1	0	0
4413.17	37.8115	0.6	1	1	1	0	0
4413.33	37.1379	0.6	1	1	1	0	0
4413.5	36.5977	0.6	1	1	1	0	0
4413.67	36.1552	0.6	1	1	1	0	0
4413.83	35.7868	0.6	1	1	1	0	0
4414	35.4673	0.6	1	1	1	0	0
4414.17	35.1808	0.6	1	1	1	0	0
4414.33	34.9171	0.6	1	1	1	0	0
4414.5	34.6694	0.6	1	1	1	0	0
4414.67	34.4335	0.6	1	1	1	0	0
4414.83	34.2065	0.6	1	1	1	0	0
4415	33.9865	0.6	1	1	1	0	0
4415.17	33.7788	0.6	1	1	1	0	0
4415.33	33.5859	0.6	1	1	1	0	0
4415.5	33.4032	0.6	1	1	1	0	0
4415.67	33.2277	0.6	1	1	1	0	0
4415.83	33.0576	0.6	1	1	1	0	0
4416	32.8915	0.6	1	1	1	0	0
4416.17	32.7288	0.6	1	1	1	0	0
4416.33	32.5688	0.6	1	1	1	0	0
4416.5	32.411	0.6	1	1	1	0	0
4416.67	32.2552	0.6	1	1	1	0	0
4416.83	32.1011	0.6	1	1	1	0	0
4417	31.9485	0.6	1	1	1	0	0
4417.17	31.8042	0.6	1	1	1	0	0
4417.33	31.6712	0.6	1	1	1	0	0
4417.5	31.5456	0.6	1	1	1	0	0
4417.67	31.425	0.6	1	1	1	0	0
4417.83	31.3077	0.6	1	1	1	0	0
4418	31.1929	0.6	1	1	1	0	0
4418.17	31.0775	0.6	1	1	1	0	0
4418.33	30.9602	0.6	1	1	1	0	0
4418.5	30.8418	0.6	1	1	1	0	0
4418.67	30.7347	0.6	1	1	1	0	0
4418.83	30.6452	0.6	1	1	1	0	0
4419	30.5671	0.6	1	1	1	0	0
4419.17	30.4988	0.6	1	1	1	0	0
4419.33	30.4391	0.6	1	1	1	0	0
4419.5	30.3852	0.6	1	1	1	0	0
4419.67	30.4638	0.6	1	1	1	0	0
4419.83	30.739	0.6	1	1	1	0	0
4420	31.2419	0.6	1	1	1	0	0
4420.17	32.3138	0.6	1	1	1	0	0
4420.33	33.4691	0.6	1	1	1	0	0
4420.5	34.6825	0.6	1	1	1	0	0
4420.67	36.3174	0.6	1	1	1	0	0
4420.83	38.5589	0.6	1	1	1	0	0
4421	41.1867	0.6	1	1	1	0	0
4421.17	44.0554	0.6	1	1	1	0	0
4421.33	47.0781	0.6	1	1	1	0	0
4421.5	50.2006	0.6	1	1	1	0	0
4421.67	53.0581	0.6	1	1	1	0	0
4421.83	55.452	0.6	1	1	1	0	0
4422	57.5539	0.6	1	1	1	0	0
4422.17	59.5112	0.6	1	1	1	0	0
4422.33	61.4114	0.6	1	1	1	0	0
4422.5	63.2832	0.6	1	1	1	0	0
4422.67	65.1142	0.6	1	1	1	0	0
4422.83	66.8989	0.6	1	1	1	0	0
4423	67.0609	0.6	0.4	0.8	1	1	0
4423.17	65.2675	0.6	0.4	0.8	1	1	0
4423.33	64.6712	0.6	0.4	0.8	1	1	0
4423.5	64.8357	0.6	0.4	0.8	1	1	0
4423.67	65.2659	0.6	0.4	0.8	1	1	0
4423.83	65.6785	0.6	0.4	0.8	1	1	0
4424	66.084	0.6	0.4	0.8	1	1	0
4424.17	66.4685	0.6	0.4	0.8	1	1	0
4424.33	66.8266	0.6	0.4	0.8	1	1	0
4424.5	67.1718	0.6	0.4	0.8	1	1	0
4424.67	67.2353	0.6	0.4	0.8	1	1	0
4424.83	66.8766	0.6	0.4	0.8	1	1	0
4425	66.2391	0.6	0.4	0.8	1	1	0
4425.17	65.3867	0.6	0.4	0.8	1	1	0
4425.33	64.3623	0.6	0.4	0.8	1	1	0
4425.5	63.2138	0.6	0.4	0.8	1	1	0
4425.67	62.9593	0.6	0.4	0.8	1	1	0
4425.83	64.1395	0.6	0.4	0.8	1	1	0
4426	66.2479	0.6	0.4	0.8	1	1	0
4426.17	68.9759	0.6	0.4	0.8	1	1	0
4426.33	72.1184	0.6	0.4	0.8	1	1	0
4426.5	75.5336	0.6	0.4	0.8	1	1	0
4426.67	77.688	0.6	0.4	0.8	1	1	0
4426.83	77.7909	0.6	0.4	0.8	1	1	0
4427	76.572	0.6	0.4	0.8	1	1	0
4427.17	74.4372	0.6	0.4	0.8	1	1	0
4427.33	71.6551	0.6	0.4	0.8	1	1	0
4427.5	68.4626	0.6	0.4	0.8	1	1	0
4427.67	66.4365	0.6	0.4	0.8	1	1	0
4427.83	66.3854	0.6	0.4	0.8	1	1	0
4428	67.5908	0.6	0.4	0.8	1	1	0
4428.17	69.7068	0.6	0.4	0.8	1	1	0
4428.33	72.5018	0.6	0.4	0.8	1	1	0
4428.5	75.7486	0.6	0.4	0.8	1	1	0
4428.67	78.0782	0.6	0.4	0.8	1	1	0
4428.83	78.7815	0.6	0.4	0.8	1	1	0
4429	78.467	0.6	0.4	0.8	1	1	0
4429.17	77.4403	0.6	0.4	0.8	1	1	0
4429.33	75.9077	0.6	0.4	0.8	1	1	0
4429.5	74.0627	0.6	0.4	0.8	1	1	0
4429.67	72.7569	0.6	0.4	0.8	1	1	0
4429.83	72.4029	0.6	0.4	0.8	1	1	0
4430	72.6374	0.6	0.4	0.8	1	1	0
4430.17	73.2874	0.6	0.4	0.8	1	1	0
4430.33	74.2375	0.6	0.4	0.8	1	1	0
4430.5	75.3705	0.6	0.4	0.8	1	1	0
4430.67	75.3082	0.6	0.4	0.8	1	1	0
4430.83	73.3483	0.6	0.4	0.8	1	1	0
4431	70.1552	0.6	0.4	0.8	1	1	0
4431.17	66.0485	0.6	0.4	0.8	1	1	0
4431.33	61.8626	0.6	1	1	1	0	0
4431.5	57.1409	0.6	1	1	1	0	0
4431.67	53.9541	0.6	1	1	1	0	0
4431.83	53.9445	0.6	1	1	1	0	0
4432	55.9659	0.6	1	1	1	0	0
4432.17	59.4449	0.6	1	1	1	0	0
4432.33	62.5542	0.6	0.4	0.8	1	1	0
4432.5	66.4468	0.6	0.4	0.8	1	1	0
4432.67	69.8018	0.6	0.4	0.8	1	1	0
4432.83	71.7062	0.6	0.4	0.8	1	1	0
4433	72.6937	0.6	0.4	0.8	1	1	0
4433.17	73.0237	0.6	0.4	0.8	1	1	0
4433.33	72.8804	0.6	0.4	0.8	1	1	0
4433.5	72.4387	0.6	0.4	0.8	1	1	0
4433.67	71.9838	0.6	0.4	0.8	1	1	0
4433.83	71.6764	0.6	0.4	0.8	1	1	0
4434	71.4656	0.6	0.4	0.8	1	1	0
4434.17	71.3121	0.6	0.4	0.8	1	1	0
4434.33	71.1961	0.6	0.4	0.8	1	1	0
4434.5	71.1098	0.6	0.4	0.8	1	1	0
4434.67	70.8616	0.6	0.4	0.8	1	1	0
4434.83	70.8215	0.6	1	1	1	0	0
4435	70.5782	0.6	1	1	1	0	0
4435.17	69.9331	0.6	1	1	1	0	0
4435.33	69.0123	0.6	1	1	1	0	0
4435.5	67.9075	0.6	1	1	1	0	0
4435.67	66.115	0.6	1	1	1	0	0
4435.83	63.3678	0.6	1	1	1	0	0
4436	60.0064	0.6	1	1	1	0	0
4436.17	56.2646	0.6	1	1	1	0	0
4436.33	52.2919	0.6	1	1	1	0	0
4436.5	47.9991	0.6	1	1	1	0	0
4436.67	44.6708	0.6	1	1	1	0	0
4436.83	42.4669	0.6	1	1	1	0	0
4437	40.9734	0.6	1	1	1	0	0
4437.17	39.9417	0.6	1	1	1	0	0
4437.33	39.2145	0.6	1	1	1	0	0
4437.5	38.6832	0.6	1	1	1	0	0
4437.67	38.2795	0.6	1	1	1	0	0
4437.83	37.9603	0.6	1	1	1	0	0
4438	37.6981	0.6	1	1	1	0	0
4438.17	37.457	0.6	1	1	1	0	0
4438.33	37.2169	0.6	1	1	1	0	0
4438.5	36.9805	0.6	1	1	1	0	0
4438.67	36.7492	0.6	1	1	1	0	0
4438.83	36.5234	0.6	1	1	1	0	0
4439	36.3032	0.6	1	1	1	0	0
4439.17	36.0975	0.6	1	1	1	0	0
4439.33	35.9103	0.6	1	1	1	0	0
4439.5	35.7363	0.6	1	1	1	0	0
4439.67	35.5717	0.6	1	1	1	0	0
4439.83	35.4144	0.6	1	1	1	0	0
4440	35.2629	0.6	1	1	1	0	0
4440.17	35.1411	0.6	1	1	1	0	0
4440.33	35.0605	0.6	1	1	1	0	0
4440.5	35.0062	0.6	1	1	1	0	0
4440.67	34.9692	0.6	1	1	1	0	0
4440.83	34.9439	0.6	1	1	1	0	0
4441	34.9266	0.6	1	1	1	0	0
4441.17	34.8784	0.6	1	1	1	0	0
4441.33	34.7804	0.6	1	1	1	0	0
4441.5	34.6522	0.6	1	1	1	0	0
4441.67	34.5057	0.6	1	1	1	0	0
4441.83	34.3482	0.6	1	1	1	0	0
4442	34.1842	0.6	1	1	1	0	0
4442.17	34.0142	0.6	1	1	1	0	0
4442.33	33.8387	0.6	1	1	1	0	0
4442.5	33.66	0.6	1	1	1	0	0
4442.67	33.4912	0.6	1	1	1	0	0
4442.83	33.3392	0.6	1	1	1	0	0
4443	33.1981	0.6	1	1	1	0	0
4443.17	33.0872	0.6	1	1	1	0	0
4443.33	33.0151	0.6	1	1	1	0	0
4443.5	32.9674	0.6	1	1	1	0	0
4443.67	33.0952	0.6	1	1	1	0	0
4443.83	33.4739	0.6	1	1	1	0	0
4444	34.1787	0.6	1	1	1	0	0
4444.17	36.4755	0.6	1	1	1	0	0
4444.33	38.7763	0.6	1	1	1	0	0
4444.5	41.0919	0.6	1	1	1	0	0
4444.67	43.3167	0.6	1	1	1	0	0
4444.83	45.3953	0.6	1	1	1	0	0
4445	47.3715	0.6	1	1	1	0	0
4445.17	49.2882	0.6	1	1	1	0	0
4445.33	51.1786	0.6	1	1	1	0	0
4445.5	53.051	0.6	1	1	1	0	0
4445.67	55.362	0.6	1	1	1	0	0
4445.83	58.3163	0.6	1	1	1	0	0
4446	61.6605	0.6	1	1	1	0	0
4446.17	65.2588	0.6	1	1	1	0	0
4446.33	69.0255	0.6	1	1	1	0	0
4446.5	71.7613	0.6	0.4	0.8	1	1	0
4446.67	68.3036	0.6	0.4	0.8	1	1	0
4446.83	66.4151	0.6	0.4	0.8	1	1	0
4447	65.5376	0.6	0.4	0.8	1	1	0
4447.17	65.3113	0.6	0.4	0.8	1	1	0
4447.33	65.5106	0.6	0.4	0.8	1	1	0
4447.5	65.9953	0.6	0.4	0.8	1	1	0
4447.67	66.8302	0.6	0.4	0.8	1	1	0
4447.83	68.038	0.6	0.4	0.8	1	1	0
4448	69.5058	0.6	0.4	0.8	1	1	0
4448.17	71.1471	0.6	0.4	0.8	1	1	0
4448.33	72.9071	0.6	0.4	0.8	1	1	0
4448.5	74.76	0.6	0.4	0.8	1	1	0
4448.67	76.4459	0.6	0.4	0.8	1	1	0
4448.83	77.8213	0.6	0.4	0.8	1	1	0
4449	78.9852	0.6	0.4	0.8	1	1	0
4449.17	79.98	0.6	0.4	0.8	1	1	0
4449.33	80.8298	0.6	0.4	0.8	1	1	0
4449.5	81.5571	0.6	0.4	0.8	1	1	0
4449.67	82.2234	0.6	0.4	0.8	1	1	0
4449.83	82.88	0.6	0.4	0.8	1	1	0
4450	83.5244	0.6	0.4	0.8	1	1	0
4450.17	84.1809	0.6	0.4	0.8	1	1	0
