Time [h]	dummy.VentilationHeatLoad [W]	dummy.ConstructionHeatConductionLoad [W]	Floor.ActiveLayerThermalLoad [W]
0	-140.922	0	502.619
0.01666666667	-139.841	20.6908	249.498
0.03333333333	-138.925	37.6072	242.077
0.05	-138.144	51.6348	250.069
0.06666666667	-137.477	63.3428	267.529
0.08333333333	-136.903	73.1599	291.23
0.1	-136.41	81.4235	318.874
0.1166666667	-135.983	88.4056	348.742
0.1333333333	-135.614	94.3263	379.571
0.15	-135.292	99.3644	410.438
0.1666666667	-135.013	103.668	440.68
0.1833333333	-134.768	107.357	469.832
0.2	-134.554	110.534	497.579
0.2166666667	-134.367	113.281	523.727
0.2333333333	-134.202	115.669	548.165
0.25	-134.057	117.754	570.849
0.2666666667	-133.929	119.587	591.785
0.2833333333	-133.817	121.205	611.011
0.3	-133.719	122.644	628.589
0.3166666667	-133.632	123.932	644.6
0.3333333333	-133.556	125.09	659.134
0.35	-133.491	126.14	672.284
0.3666666667	-133.434	127.095	684.149
0.3833333333	-133.385	127.971	694.826
0.4	-133.343	128.778	704.408
0.4166666667	-133.308	129.524	712.986
0.4333333333	-133.28	130.218	720.648
0.45	-133.257	130.866	727.475
0.4666666667	-133.24	131.473	733.542
0.4833333333	-133.228	132.043	738.921
0.5	-133.22	132.579	743.677
0.5166666667	-133.217	133.086	747.871
0.5333333333	-133.218	133.564	751.557
0.55	-133.223	134.018	754.787
0.5666666667	-133.231	134.447	757.606
0.5833333333	-133.243	134.855	760.056
0.6	-133.258	135.242	762.175
0.6166666667	-133.276	135.609	763.998
0.6333333333	-133.297	135.958	765.556
0.65	-133.32	136.29	766.875
0.6666666667	-133.346	136.606	767.983
0.6833333333	-133.374	136.906	768.901
0.7	-133.405	137.192	769.65
0.7166666667	-133.437	137.463	770.248
0.7333333333	-133.472	137.721	770.711
0.75	-133.508	137.967	771.056
0.7666666667	-133.546	138.201	771.293
0.7833333333	-133.586	138.424	771.437
0.8	-133.627	138.636	771.497
0.8166666667	-133.669	138.838	771.482
0.8333333333	-133.713	139.031	771.402
0.85	-133.758	139.214	771.264
0.8666666667	-133.804	139.389	771.073
0.8833333333	-133.851	139.556	770.837
0.9	-133.899	139.716	770.56
0.9166666667	-133.948	139.868	770.246
0.9333333333	-133.998	140.013	769.9
0.95	-134.048	140.152	769.526
0.9666666667	-134.099	140.285	769.128
0.9833333333	-134.151	140.412	768.709
1	-134.204	140.534	768.266
1.016666667	-134.257	140.651	767.805
1.033333333	-134.31	140.764	767.33
1.05	-134.364	140.872	766.844
1.066666667	-134.419	140.976	766.351
1.083333333	-134.474	141.076	765.847
1.1	-134.529	141.173	765.329
1.116666667	-134.584	141.267	764.804
1.133333333	-134.64	141.357	764.275
1.15	-134.696	141.444	763.746
1.166666667	-134.753	141.529	763.218
1.183333333	-134.809	141.611	762.683
1.2	-134.866	141.691	762.144
1.216666667	-134.923	141.769	761.604
1.233333333	-134.98	141.844	761.064
1.25	-135.037	141.918	760.525
1.266666667	-135.095	141.99	759.989
1.283333333	-135.152	142.06	759.45
1.3	-135.21	142.129	758.911
1.316666667	-135.268	142.196	758.373
1.333333333	-135.325	142.262	757.835
1.35	-135.383	142.326	757.297
1.366666667	-135.441	142.389	756.76
1.383333333	-135.499	142.452	756.223
1.4	-135.557	142.513	755.686
1.416666667	-135.615	142.573	755.149
1.433333333	-135.673	142.632	754.613
1.45	-135.731	142.691	754.076
1.466666667	-135.789	142.749	753.54
1.483333333	-135.847	142.806	753.004
1.5	-135.905	142.862	752.469
1.516666667	-135.963	142.918	751.934
1.533333333	-136.021	142.973	751.401
1.55	-136.079	143.028	750.869
1.566666667	-136.137	143.082	750.337
1.583333333	-136.195	143.136	749.806
1.6	-136.252	143.189	749.276
1.616666667	-136.31	143.242	748.748
1.633333333	-136.368	143.294	748.222
1.65	-136.426	143.346	747.697
1.666666667	-136.483	143.398	747.174
1.683333333	-136.541	143.45	746.651
1.7	-136.598	143.501	746.131
1.716666667	-136.656	143.551	745.612
1.733333333	-136.713	143.602	745.094
1.75	-136.771	143.652	744.578
1.766666667	-136.828	143.702	744.063
1.783333333	-136.885	143.752	743.55
1.8	-136.942	143.801	743.037
1.816666667	-137	143.85	742.526
1.833333333	-137.057	143.899	742.016
1.85	-137.114	143.948	741.506
1.866666667	-137.171	143.996	740.998
1.883333333	-137.227	144.045	740.491
1.9	-137.284	144.093	739.985
1.916666667	-137.341	144.141	739.48
1.933333333	-137.398	144.189	738.976
1.95	-137.454	144.236	738.472
1.966666667	-137.511	144.284	737.97
1.983333333	-137.567	144.331	737.469
2	-137.623	144.379	736.968
2.016666667	-137.68	144.426	736.469
2.033333333	-137.736	144.473	735.971
2.05	-137.792	144.52	735.474
2.066666667	-137.848	144.566	734.977
2.083333333	-137.904	144.613	734.482
2.1	-137.96	144.66	733.988
2.116666667	-138.015	144.706	733.495
2.133333333	-138.071	144.752	733.004
2.15	-138.127	144.798	732.513
2.166666667	-138.182	144.844	732.023
2.183333333	-138.238	144.89	731.534
2.2	-138.293	144.936	731.047
2.216666667	-138.349	144.982	730.56
2.233333333	-138.404	145.027	730.074
2.25	-138.459	145.073	729.589
2.266666667	-138.514	145.118	729.105
2.283333333	-138.569	145.163	728.621
2.3	-138.624	145.208	728.139
2.316666667	-138.679	145.253	727.657
2.333333333	-138.734	145.298	727.176
2.35	-138.788	145.343	726.696
2.366666667	-138.843	145.388	726.217
2.383333333	-138.897	145.433	725.738
2.4	-138.952	145.477	725.261
2.416666667	-139.006	145.522	724.784
2.433333333	-139.06	145.566	724.307
2.45	-139.114	145.611	723.832
2.466666667	-139.169	145.655	723.357
2.483333333	-139.223	145.699	722.883
2.5	-139.277	145.743	722.41
2.516666667	-139.33	145.787	721.938
2.533333333	-139.384	145.831	721.466
2.55	-139.438	145.875	720.995
2.566666667	-139.491	145.919	720.525
2.583333333	-139.545	145.962	720.055
2.6	-139.598	146.006	719.586
2.616666667	-139.652	146.05	719.118
2.633333333	-139.705	146.093	718.651
2.65	-139.758	146.136	718.184
2.666666667	-139.811	146.18	717.718
2.683333333	-139.864	146.223	717.253
2.7	-139.917	146.266	716.788
2.716666667	-139.97	146.309	716.324
2.733333333	-140.023	146.352	715.861
2.75	-140.076	146.395	715.398
2.766666667	-140.128	146.438	714.936
2.783333333	-140.181	146.481	714.475
2.8	-140.233	146.523	714.015
2.816666667	-140.286	146.566	713.556
2.833333333	-140.338	146.608	713.097
2.85	-140.39	146.651	712.639
2.866666667	-140.442	146.693	686.778
2.883333333	-140.494	146.736	633.167
2.9	-140.546	146.778	583.007
2.916666667	-140.598	146.819	536.96
2.933333333	-140.65	146.859	495.858
2.95	-140.702	146.894	458.49
2.966666667	-140.753	146.921	424.717
2.983333333	-140.804	146.937	394.382
3	-140.855	146.939	367.103
3.016666667	-140.906	146.924	342.564
3.033333333	-140.956	146.889	320.484
3.05	-141.005	146.834	300.608
3.066666667	-141.053	146.757	282.704
3.083333333	-141.1	146.66	266.564
3.1	-141.145	146.542	252.018
3.116666667	-141.189	146.406	238.904
3.133333333	-141.232	146.252	227.032
3.15	-141.273	146.083	216.29
3.166666667	-141.312	145.9	206.561
3.183333333	-141.35	145.705	197.743
3.2	-141.385	145.501	189.752
3.216666667	-141.418	145.29	182.506
3.233333333	-141.449	145.074	176.003
3.25	-141.479	144.854	170.246
3.266666667	-141.506	144.632	165.154
3.283333333	-141.531	144.409	160.65
3.3	-141.554	144.187	156.667
3.316666667	-141.575	143.967	153.136
3.333333333	-141.594	143.75	150.001
3.35	-141.611	143.537	147.216
3.366666667	-141.626	143.328	144.735
3.383333333	-141.639	143.124	142.523
3.4	-141.651	142.926	140.55
3.416666667	-141.66	142.733	138.787
3.433333333	-141.668	142.547	137.211
3.45	-141.675	142.368	135.8
3.466666667	-141.68	142.195	134.535
3.483333333	-141.684	142.029	133.403
3.5	-141.686	141.87	132.385
3.516666667	-141.687	141.717	131.476
3.533333333	-141.686	141.571	130.665
3.55	-141.685	141.432	129.933
3.566666667	-141.682	141.299	129.264
3.583333333	-141.678	141.172	128.67
3.6	-141.674	141.052	128.135
3.616666667	-141.668	140.937	127.645
3.633333333	-141.661	140.829	127.189
3.65	-141.654	140.726	126.776
3.666666667	-141.646	140.628	126.395
3.683333333	-141.637	140.535	126.049
3.7	-141.628	140.447	125.733
3.716666667	-141.617	140.364	125.445
3.733333333	-141.607	140.284	125.182
3.75	-141.595	140.209	124.941
3.766666667	-141.584	140.138	124.721
3.783333333	-141.571	140.07	124.518
3.8	-141.559	140.005	124.33
3.816666667	-141.545	139.944	124.158
3.833333333	-141.532	139.885	124
3.85	-141.518	139.83	123.853
3.866666667	-141.504	139.777	123.718
3.883333333	-141.489	139.726	123.594
3.9	-141.474	139.678	123.48
3.916666667	-141.459	139.632	123.38
3.933333333	-141.444	139.589	123.296
3.95	-141.428	139.547	123.232
3.966666667	-141.413	139.506	123.2
3.983333333	-141.397	139.468	123.237
4	-141.38	139.431	123.353
4.016666667	-141.364	139.395	123.568
4.033333333	-141.348	139.361	123.834
4.05	-141.331	139.329	124.178
4.066666667	-141.314	139.297	124.601
4.083333333	-141.297	139.267	125.093
4.1	-141.28	139.237	125.645
4.116666667	-141.263	139.209	126.251
4.133333333	-141.246	139.182	126.905
4.15	-141.229	139.156	127.615
4.166666667	-141.212	139.131	128.365
4.183333333	-141.194	139.106	129.15
4.2	-141.177	139.083	129.982
4.216666667	-141.159	139.061	130.854
4.233333333	-141.142	139.039	131.764
4.25	-141.124	139.019	132.714
4.266666667	-141.107	138.999	133.705
4.283333333	-141.089	138.981	134.738
4.3	-141.072	138.963	135.815
4.316666667	-141.054	138.946	136.941
4.333333333	-141.037	138.931	138.118
4.35	-141.019	138.916	139.342
4.366666667	-141.002	138.902	140.614
4.383333333	-140.984	138.889	141.938
4.4	-140.967	138.877	143.317
4.416666667	-140.949	138.865	144.754
4.433333333	-140.932	138.855	146.251
4.45	-140.915	138.846	147.811
4.466666667	-140.897	138.837	149.435
4.483333333	-140.88	138.829	151.125
4.5	-140.863	138.822	152.885
4.516666667	-140.846	138.816	154.716
4.533333333	-140.829	138.811	156.621
4.55	-140.813	138.807	158.604
4.566666667	-140.796	138.804	160.682
4.583333333	-140.779	138.801	162.853
4.6	-140.763	138.8	165.122
4.616666667	-140.747	138.799	167.495
4.633333333	-140.731	138.799	169.979
4.65	-140.715	138.8	172.58
4.666666667	-140.699	138.802	175.325
4.683333333	-140.683	138.805	178.215
4.7	-140.667	138.809	181.264
4.716666667	-140.652	138.814	184.484
4.733333333	-140.637	138.82	187.891
4.75	-140.622	138.828	191.502
4.766666667	-140.607	138.836	195.374
4.783333333	-140.592	138.846	199.518
4.8	-140.578	138.857	203.963
4.816666667	-140.564	138.869	208.742
4.833333333	-140.55	138.883	213.893
4.85	-140.536	138.898	219.456
4.866666667	-140.522	138.915	225.71
4.883333333	-140.509	138.934	232.744
4.9	-140.496	138.954	240.623
4.916666667	-140.483	138.977	249.488
4.933333333	-140.471	139.001	259.499
4.95	-140.459	139.028	270.833
4.966666667	-140.447	139.058	283.861
4.983333333	-140.436	139.09	300.3
5	-140.425	139.126	324.156
5.016666667	-140.414	139.165	364.652
5.033333333	-140.404	139.208	428.972
5.05	-140.394	139.256	482.895
5.066666667	-140.385	139.311	523.972
5.083333333	-140.376	139.373	558.614
5.1	-140.368	139.447	587.091
5.116666667	-140.361	139.534	609.909
5.133333333	-140.355	139.639	628.262
5.15	-140.349	139.762	643.65
5.166666667	-140.345	139.905	655.907
5.183333333	-140.342	140.068	665.782
5.2	-140.34	140.251	673.904
5.216666667	-140.34	140.452	680.558
5.233333333	-140.342	140.669	685.919
5.25	-140.346	140.9	690.192
5.266666667	-140.351	141.143	693.598
5.283333333	-140.359	141.394	696.308
5.3	-140.369	141.651	698.451
5.316666667	-140.38	141.912	700.129
5.333333333	-140.394	142.175	701.413
5.35	-140.41	142.437	702.376
5.366666667	-140.428	142.697	678.795
5.383333333	-140.448	142.953	633.058
5.4	-140.47	143.204	590.417
5.416666667	-140.493	143.449	550.359
5.433333333	-140.519	143.685	513.149
5.45	-140.546	143.909	478.818
5.466666667	-140.575	144.119	447.43
5.483333333	-140.605	144.311	418.785
5.5	-140.637	144.482	392.716
5.516666667	-140.669	144.629	368.943
5.533333333	-140.702	144.75	347.28
5.55	-140.736	144.845	327.534
5.566666667	-140.771	144.912	309.543
5.583333333	-140.805	144.952	293.155
5.6	-140.84	144.966	278.212
5.616666667	-140.874	144.954	264.586
5.633333333	-140.908	144.919	252.156
5.65	-140.941	144.862	240.816
5.666666667	-140.973	144.786	230.466
5.683333333	-141.004	144.693	221.016
5.7	-141.035	144.586	212.386
5.716666667	-141.064	144.465	204.502
5.733333333	-141.091	144.333	197.296
5.75	-141.118	144.192	190.711
5.766666667	-141.143	144.044	184.69
5.783333333	-141.166	143.89	179.185
5.8	-141.188	143.732	174.149
5.816666667	-141.208	143.572	169.543
5.833333333	-141.227	143.41	165.331
5.85	-141.245	143.248	161.478
5.866666667	-141.261	143.086	157.958
5.883333333	-141.275	142.926	154.742
5.9	-141.288	142.767	151.806
5.916666667	-141.3	142.612	149.127
5.933333333	-141.31	142.459	146.686
5.95	-141.319	142.31	144.462
5.966666667	-141.327	142.165	142.681
5.983333333	-141.333	142.024	251.995
6	-141.338	141.888	335.5
6.016666667	-141.342	141.757	402.88
6.033333333	-141.345	141.632	457.586
6.05	-141.347	141.518	501.937
6.066666667	-141.348	141.42	538.026
6.083333333	-141.348	141.343	567.433
6.1	-141.348	141.291	591.418
6.116666667	-141.347	141.27	610.981
6.133333333	-141.347	141.281	626.961
6.15	-141.346	141.326	640.009
6.166666667	-141.347	141.404	650.643
6.183333333	-141.347	141.513	659.284
6.2	-141.349	141.651	666.29
6.216666667	-141.353	141.814	671.957
6.233333333	-141.357	141.999	676.526
6.25	-141.363	142.203	680.196
6.266666667	-141.371	142.422	683.135
6.283333333	-141.381	142.652	685.476
6.3	-141.392	142.891	687.32
6.316666667	-141.406	143.135	688.762
6.333333333	-141.421	143.382	689.849
6.35	-141.439	143.63	690.673
6.366666667	-141.458	143.876	691.258
6.383333333	-141.479	144.12	691.651
6.4	-141.502	144.358	691.869
6.416666667	-141.526	144.591	691.961
6.433333333	-141.553	144.818	691.948
6.45	-141.581	145.038	691.848
6.466666667	-141.61	145.25	691.674
6.483333333	-141.642	145.455	691.442
6.5	-141.674	145.651	691.164
6.516666667	-141.708	145.84	690.848
6.533333333	-141.743	146.02	690.501
6.55	-141.779	146.193	690.127
6.566666667	-141.816	146.358	689.733
6.583333333	-141.855	146.515	689.32
6.6	-141.894	146.665	688.894
6.616666667	-141.934	146.808	688.455
6.633333333	-141.975	146.945	688.007
6.65	-142.017	147.074	687.551
6.666666667	-142.06	147.198	687.09
6.683333333	-142.103	147.316	686.623
6.7	-142.146	147.429	686.154
6.716666667	-142.191	147.537	685.681
6.733333333	-142.235	147.64	685.207
6.75	-142.281	147.738	684.732
6.766666667	-142.326	147.832	684.256
6.783333333	-142.372	147.922	683.779
6.8	-142.419	148.009	683.302
6.816666667	-142.466	148.092	682.826
6.833333333	-142.513	148.172	682.35
6.85	-142.56	148.249	681.874
6.866666667	-142.607	148.323	681.398
6.883333333	-142.655	148.395	680.924
6.9	-142.703	148.464	680.451
6.916666667	-142.751	148.531	679.978
6.933333333	-142.799	148.597	679.505
6.95	-142.848	148.66	679.034
6.966666667	-142.896	148.722	678.564
6.983333333	-142.945	148.782	678.095
7	-142.994	148.841	677.627
7.016666667	-143.042	148.898	677.16
7.033333333	-143.091	148.954	676.694
7.05	-143.14	149.008	676.23
7.066666667	-143.189	149.062	675.767
7.083333333	-143.238	149.115	675.306
7.1	-143.287	149.166	674.846
7.116666667	-143.336	149.217	674.387
7.133333333	-143.385	149.267	673.929
7.15	-143.434	149.316	673.473
7.166666667	-143.483	149.365	673.018
7.183333333	-143.532	149.413	672.564
7.2	-143.581	149.46	672.112
7.216666667	-143.63	149.507	671.66
7.233333333	-143.679	149.553	671.21
7.25	-143.728	149.599	670.761
7.266666667	-143.777	149.644	670.313
7.283333333	-143.826	149.689	669.867
7.3	-143.874	149.734	669.421
7.316666667	-143.923	149.778	668.977
7.333333333	-143.972	149.821	668.533
7.35	-144.021	149.865	668.091
7.366666667	-144.069	149.908	667.65
7.383333333	-144.118	149.951	667.209
7.4	-144.167	149.994	666.77
7.416666667	-144.215	150.036	666.332
7.433333333	-144.264	150.078	665.895
7.45	-144.312	150.12	665.459
7.466666667	-144.36	150.162	665.024
7.483333333	-144.409	150.203	664.589
7.5	-144.457	150.245	664.156
7.516666667	-144.505	150.286	663.724
7.533333333	-144.553	150.327	663.293
7.55	-144.601	150.368	662.862
7.566666667	-144.649	150.408	662.433
7.583333333	-144.697	150.449	662.004
7.6	-144.745	150.489	661.576
7.616666667	-144.793	150.529	661.15
7.633333333	-144.841	150.569	660.724
7.65	-144.889	150.609	660.298
7.666666667	-144.936	150.649	659.874
7.683333333	-144.984	150.689	659.451
7.7	-145.031	150.729	659.028
7.716666667	-145.079	150.768	658.606
7.733333333	-145.126	150.808	658.185
7.75	-145.173	150.847	657.765
7.766666667	-145.221	150.886	657.345
7.783333333	-145.268	150.925	656.927
7.8	-145.315	150.964	656.509
7.816666667	-145.362	151.003	656.092
7.833333333	-145.409	151.042	655.675
7.85	-145.456	151.081	655.259
7.866666667	-145.503	151.119	654.844
7.883333333	-145.549	151.158	654.43
7.9	-145.596	151.196	654.017
7.916666667	-145.643	151.235	653.604
7.933333333	-145.689	151.273	653.192
7.95	-145.736	151.311	652.78
7.966666667	-145.782	151.35	652.369
7.983333333	-145.829	151.388	651.959
8	-145.875	151.426	651.55
8.016666667	-145.921	151.464	651.141
8.033333333	-145.967	151.501	650.733
8.05	-146.013	151.539	650.326
8.066666667	-146.059	151.577	649.919
8.083333333	-146.105	151.614	649.513
8.1	-146.151	151.652	649.107
8.116666667	-146.197	151.69	648.702
8.133333333	-146.243	151.727	648.298
8.15	-146.288	151.764	647.894
8.166666667	-146.334	151.802	647.491
8.183333333	-146.38	151.839	647.089
8.2	-146.425	151.876	646.687
8.216666667	-146.47	151.913	646.286
8.233333333	-146.516	151.95	645.885
8.25	-146.561	151.987	645.485
8.266666667	-146.606	152.024	645.085
8.283333333	-146.651	152.061	644.687
8.3	-146.696	152.097	644.288
8.316666667	-146.741	152.134	643.89
8.333333333	-146.786	152.171	643.493
8.35	-146.831	152.207	643.096
8.366666667	-146.876	152.244	642.7
8.383333333	-146.921	152.28	642.305
8.4	-146.965	152.317	641.91
8.416666667	-147.01	152.353	641.515
8.433333333	-147.054	152.389	641.121
8.45	-147.099	152.425	640.728
8.466666667	-147.143	152.462	640.335
8.483333333	-147.187	152.498	639.943
8.5	-147.232	152.534	639.551
8.516666667	-147.276	152.57	639.16
8.533333333	-147.32	152.606	638.769
8.55	-147.364	152.642	638.378
8.566666667	-147.408	152.677	637.989
8.583333333	-147.452	152.713	637.599
8.6	-147.495	152.749	637.211
8.616666667	-147.539	152.784	636.822
8.633333333	-147.583	152.82	636.435
8.65	-147.626	152.856	636.047
8.666666667	-147.67	152.891	635.661
8.683333333	-147.713	152.926	635.274
8.7	-147.757	152.962	634.889
8.716666667	-147.8	152.997	634.503
8.733333333	-147.843	153.032	634.118
8.75	-147.887	153.067	633.734
8.766666667	-147.93	153.103	633.35
8.783333333	-147.973	153.138	632.967
8.8	-148.016	153.173	632.584
8.816666667	-148.059	153.208	632.201
8.833333333	-148.102	153.243	631.819
8.85	-148.144	153.277	631.438
8.866666667	-148.187	153.312	631.057
8.883333333	-148.23	153.347	630.676
8.9	-148.272	153.382	630.296
8.916666667	-148.315	153.416	629.916
8.933333333	-148.357	153.451	629.537
8.95	-148.4	153.486	629.158
8.966666667	-148.442	153.52	628.78
8.983333333	-148.485	153.554	628.402
9	-148.527	153.589	628.025
9.016666667	-148.569	153.623	627.648
9.033333333	-148.611	153.657	627.271
9.05	-148.653	153.692	626.895
9.066666667	-148.695	153.726	626.52
9.083333333	-148.737	153.76	626.145
9.1	-148.779	153.794	625.77
9.116666667	-148.82	153.828	625.395
9.133333333	-148.862	153.862	625.022
9.15	-148.904	153.896	624.648
9.166666667	-148.945	153.93	624.275
9.183333333	-148.987	153.964	623.903
9.2	-149.028	153.997	623.53
9.216666667	-149.07	154.031	623.159
9.233333333	-149.111	154.065	622.787
9.25	-149.152	154.098	622.417
9.266666667	-149.193	154.132	622.046
9.283333333	-149.235	154.165	621.676
9.3	-149.276	154.199	621.307
9.316666667	-149.317	154.232	620.937
9.333333333	-149.357	154.266	620.569
9.35	-149.398	154.299	620.2
9.366666667	-149.439	154.332	619.832
9.383333333	-149.48	154.365	619.465
9.4	-149.521	154.399	619.098
9.416666667	-149.561	154.432	618.731
9.433333333	-149.602	154.465	618.365
9.45	-149.642	154.498	617.999
9.466666667	-149.683	154.531	617.634
9.483333333	-149.723	154.564	617.269
9.5	-149.763	154.597	616.904
9.516666667	-149.804	154.629	616.54
9.533333333	-149.844	154.662	616.176
9.55	-149.884	154.695	615.812
9.566666667	-149.924	154.728	615.449
9.583333333	-149.964	154.76	615.087
9.6	-150.004	154.793	614.725
9.616666667	-150.044	154.826	614.363
9.633333333	-150.084	154.858	614.001
9.65	-150.123	154.891	613.64
9.666666667	-150.163	154.923	613.28
