Time [h]	dummy.VentilationHeatLoad [W]	dummy.ConstructionHeatConductionLoad [W]	Floor.ActiveLayerThermalLoad [W]
0	-140.922	0	502.619
0.01666666667	-139.841	20.6908	249.498
0.03333333333	-138.925	37.6072	242.077
0.05	-138.144	51.6348	250.069
0.06666666667	-137.477	63.3428	267.529
0.08333333333	-136.903	73.1599	291.23
0.1	-136.41	81.4235	318.874
0.1166666667	-135.983	88.4056	348.742
0.1333333333	-135.614	94.3263	379.57
0.15	-135.292	99.3644	410.438
0.1666666667	-135.013	103.668	440.68
0.1833333333	-134.768	107.357	469.832
0.2	-134.554	110.534	497.579
0.2166666667	-134.367	113.281	523.727
0.2333333333	-134.202	115.669	548.164
0.25	-134.057	117.754	570.849
0.2666666667	-133.929	119.587	591.785
0.2833333333	-133.817	121.205	611.01
0.3	-133.719	122.644	628.589
0.3166666667	-133.632	123.932	644.6
0.3333333333	-133.556	125.09	659.134
0.35	-133.491	126.14	672.284
0.3666666667	-133.434	127.095	684.149
0.3833333333	-133.385	127.971	694.826
0.4	-133.343	128.778	704.408
0.4166666667	-133.308	129.524	712.986
0.4333333333	-133.28	130.218	720.648
0.45	-133.257	130.866	727.474
0.4666666667	-133.24	131.473	733.542
0.4833333333	-133.228	132.043	738.921
0.5	-133.22	132.579	743.677
0.5166666667	-133.217	133.086	747.871
0.5333333333	-133.218	133.564	751.557
0.55	-133.223	134.018	754.787
0.5666666667	-133.231	134.447	757.605
0.5833333333	-133.243	134.855	760.056
0.6	-133.258	135.242	762.175
0.6166666667	-133.276	135.609	763.998
0.6333333333	-133.297	135.958	765.555
0.65	-133.32	136.29	766.875
0.6666666667	-133.346	136.606	767.983
0.6833333333	-133.374	136.906	768.901
0.7	-133.405	137.192	769.65
0.7166666667	-133.437	137.463	770.247
0.7333333333	-133.472	137.721	770.711
0.75	-133.508	137.967	771.056
0.7666666667	-133.546	138.201	771.293
0.7833333333	-133.586	138.424	771.437
0.8	-133.627	138.636	771.497
0.8166666667	-133.669	138.838	771.482
0.8333333333	-133.713	139.031	771.402
0.85	-133.758	139.214	771.263
0.8666666667	-133.804	139.389	771.073
0.8833333333	-133.851	139.556	770.837
0.9	-133.899	139.716	770.56
0.9166666667	-133.948	139.868	770.246
0.9333333333	-133.998	140.013	769.9
0.95	-134.048	140.152	769.526
0.9666666667	-134.099	140.285	769.128
0.9833333333	-134.151	140.412	768.709
1	-134.204	140.534	768.266
1.016666667	-134.257	140.651	767.805
1.033333333	-134.31	140.764	767.329
1.05	-134.364	140.872	766.843
1.066666667	-134.419	140.976	766.35
1.083333333	-134.474	141.076	765.846
1.1	-134.529	141.173	765.328
1.116666667	-134.584	141.267	764.803
1.133333333	-134.64	141.357	764.274
1.15	-134.696	141.444	763.744
1.166666667	-134.753	141.529	763.216
1.183333333	-134.809	141.611	762.682
1.2	-134.866	141.691	762.142
1.216666667	-134.923	141.769	761.602
1.233333333	-134.98	141.844	761.062
1.25	-135.037	141.918	760.523
1.266666667	-135.095	141.99	759.987
1.283333333	-135.152	142.06	759.448
1.3	-135.21	142.129	758.91
1.316666667	-135.268	142.196	758.371
1.333333333	-135.325	142.262	757.834
1.35	-135.383	142.326	757.296
1.366666667	-135.441	142.389	756.758
1.383333333	-135.499	142.452	756.221
1.4	-135.557	142.513	755.685
1.416666667	-135.615	142.573	755.149
1.433333333	-135.673	142.632	754.612
1.45	-135.731	142.691	754.076
1.466666667	-135.789	142.749	753.54
1.483333333	-135.847	142.806	753.004
1.5	-135.905	142.862	752.469
1.516666667	-135.963	142.918	751.934
1.533333333	-136.021	142.973	751.401
1.55	-136.079	143.028	750.869
1.566666667	-136.137	143.082	750.337
1.583333333	-136.195	143.136	749.806
1.6	-136.252	143.189	749.276
1.616666667	-136.31	143.242	748.748
1.633333333	-136.368	143.294	748.221
1.65	-136.426	143.346	747.697
1.666666667	-136.483	143.398	747.173
1.683333333	-136.541	143.45	746.651
1.7	-136.598	143.501	746.13
1.716666667	-136.656	143.551	745.611
1.733333333	-136.713	143.602	745.094
1.75	-136.771	143.652	744.577
1.766666667	-136.828	143.702	744.063
1.783333333	-136.885	143.752	743.549
1.8	-136.942	143.801	743.037
1.816666667	-137	143.85	742.526
1.833333333	-137.057	143.899	742.015
1.85	-137.114	143.948	741.506
1.866666667	-137.171	143.996	740.998
1.883333333	-137.227	144.045	740.491
1.9	-137.284	144.093	739.985
1.916666667	-137.341	144.141	739.48
1.933333333	-137.398	144.189	738.976
1.95	-137.454	144.236	738.473
1.966666667	-137.511	144.284	737.97
1.983333333	-137.567	144.331	737.469
2	-137.623	144.379	736.968
2.016666667	-137.68	144.426	736.469
2.033333333	-137.736	144.473	735.971
2.05	-137.792	144.52	735.474
2.066666667	-137.848	144.566	734.978
2.083333333	-137.904	144.613	734.482
2.1	-137.96	144.66	733.988
2.116666667	-138.015	144.706	733.495
2.133333333	-138.071	144.752	733.004
2.15	-138.127	144.798	732.513
2.166666667	-138.182	144.844	732.023
2.183333333	-138.238	144.89	731.534
2.2	-138.293	144.936	731.046
2.216666667	-138.349	144.982	730.56
2.233333333	-138.404	145.027	730.074
2.25	-138.459	145.073	729.589
2.266666667	-138.514	145.118	729.105
2.283333333	-138.569	145.163	728.621
2.3	-138.624	145.208	728.139
2.316666667	-138.679	145.253	727.657
2.333333333	-138.734	145.298	727.176
2.35	-138.788	145.343	726.696
2.366666667	-138.843	145.388	726.217
2.383333333	-138.897	145.433	725.738
2.4	-138.952	145.477	725.261
2.416666667	-139.006	145.522	724.784
2.433333333	-139.06	145.566	724.307
2.45	-139.114	145.611	723.832
2.466666667	-139.169	145.655	723.357
2.483333333	-139.223	145.699	722.883
2.5	-139.277	145.743	722.41
2.516666667	-139.33	145.787	721.938
2.533333333	-139.384	145.831	721.466
2.55	-139.438	145.875	720.995
2.566666667	-139.491	145.919	720.525
2.583333333	-139.545	145.962	720.055
2.6	-139.598	146.006	719.586
2.616666667	-139.652	146.05	719.118
2.633333333	-139.705	146.093	718.65
2.65	-139.758	146.136	718.184
2.666666667	-139.811	146.18	717.718
2.683333333	-139.864	146.223	717.253
2.7	-139.917	146.266	716.788
2.716666667	-139.97	146.309	716.324
2.733333333	-140.023	146.352	715.861
2.75	-140.076	146.395	715.398
2.766666667	-140.128	146.438	714.936
2.783333333	-140.181	146.481	714.475
2.8	-140.233	146.523	714.015
2.816666667	-140.286	146.566	713.555
2.833333333	-140.338	146.609	713.097
2.85	-140.39	146.651	712.639
2.866666667	-140.442	146.693	688.254
2.883333333	-140.494	146.736	634.613
2.9	-140.546	146.778	583.837
2.916666667	-140.598	146.819	537.926
2.933333333	-140.65	146.859	496.619
2.95	-140.702	146.894	458.768
2.966666667	-140.753	146.921	424.841
2.983333333	-140.804	146.938	394.512
3	-140.855	146.94	367.235
3.016666667	-140.906	146.925	342.673
3.033333333	-140.956	146.89	320.555
3.05	-141.005	146.835	300.67
3.066666667	-141.053	146.758	282.753
3.083333333	-141.1	146.66	266.619
3.1	-141.145	146.543	252.053
3.116666667	-141.19	146.406	238.894
3.133333333	-141.232	146.252	226.996
3.15	-141.273	146.083	216.234
3.166666667	-141.312	145.9	206.499
3.183333333	-141.35	145.706	197.682
3.2	-141.385	145.503	189.696
3.216666667	-141.418	145.293	182.454
3.233333333	-141.45	145.077	175.954
3.25	-141.479	144.858	170.16
3.266666667	-141.506	144.636	165.05
3.283333333	-141.531	144.414	160.551
3.3	-141.554	144.192	156.57
3.316666667	-141.575	143.972	153.05
3.333333333	-141.594	143.755	149.947
3.35	-141.611	143.542	147.18
3.366666667	-141.626	143.333	144.726
3.383333333	-141.639	143.13	142.529
3.4	-141.651	142.931	140.562
3.416666667	-141.661	142.739	138.8
3.433333333	-141.669	142.553	137.219
3.45	-141.675	142.373	135.8
3.466666667	-141.681	142.2	134.531
3.483333333	-141.684	142.034	133.391
3.5	-141.686	141.874	132.37
3.516666667	-141.687	141.722	131.452
3.533333333	-141.687	141.576	130.628
3.55	-141.685	141.437	129.888
3.566666667	-141.683	141.304	129.224
3.583333333	-141.679	141.177	128.623
3.6	-141.674	141.057	128.076
3.616666667	-141.669	140.942	127.58
3.633333333	-141.662	140.833	127.129
3.65	-141.655	140.73	126.718
3.666666667	-141.647	140.632	126.345
3.683333333	-141.638	140.539	126.005
3.7	-141.629	140.45	125.695
3.716666667	-141.618	140.366	125.411
3.733333333	-141.608	140.287	125.152
3.75	-141.596	140.211	124.915
3.766666667	-141.585	140.139	124.697
3.783333333	-141.572	140.071	124.497
3.8	-141.56	140.007	124.314
3.816666667	-141.546	139.945	124.146
3.833333333	-141.533	139.887	123.99
3.85	-141.519	139.831	123.845
3.866666667	-141.505	139.778	123.711
3.883333333	-141.49	139.728	123.587
3.9	-141.475	139.679	123.472
3.916666667	-141.46	139.633	123.365
3.933333333	-141.445	139.589	123.266
3.95	-141.429	139.547	123.177
3.966666667	-141.414	139.507	123.149
3.983333333	-141.398	139.469	123.192
4	-141.381	139.432	123.325
4.016666667	-141.365	139.396	123.52
4.033333333	-141.349	139.362	123.8
4.05	-141.332	139.329	124.162
4.066666667	-141.315	139.298	124.592
4.083333333	-141.298	139.267	125.084
4.1	-141.281	139.238	125.635
4.116666667	-141.264	139.21	126.242
4.133333333	-141.247	139.183	126.891
4.15	-141.23	139.156	127.587
4.166666667	-141.213	139.131	128.328
4.183333333	-141.195	139.107	129.107
4.2	-141.178	139.084	129.928
4.216666667	-141.16	139.061	130.792
4.233333333	-141.143	139.04	131.698
4.25	-141.125	139.02	132.645
4.266666667	-141.108	139	133.635
4.283333333	-141.09	138.982	134.67
4.3	-141.073	138.964	135.754
4.316666667	-141.055	138.947	136.882
4.333333333	-141.038	138.932	138.058
4.35	-141.02	138.917	139.282
4.366666667	-141.002	138.903	140.558
4.383333333	-140.985	138.89	141.887
4.4	-140.968	138.878	143.268
4.416666667	-140.95	138.867	144.705
4.433333333	-140.933	138.856	146.199
4.45	-140.916	138.847	147.751
4.466666667	-140.898	138.838	149.367
4.483333333	-140.881	138.83	151.049
4.5	-140.864	138.823	152.798
4.516666667	-140.847	138.817	154.619
4.533333333	-140.83	138.812	156.517
4.55	-140.814	138.807	158.496
4.566666667	-140.797	138.803	160.562
4.583333333	-140.78	138.801	162.719
4.6	-140.764	138.799	164.976
4.616666667	-140.748	138.798	167.339
4.633333333	-140.731	138.798	169.816
4.65	-140.715	138.799	172.416
4.666666667	-140.699	138.801	175.148
4.683333333	-140.684	138.804	178.027
4.7	-140.668	138.808	181.065
4.716666667	-140.653	138.813	184.276
4.733333333	-140.637	138.819	187.674
4.75	-140.622	138.827	191.289
4.766666667	-140.608	138.835	195.165
4.783333333	-140.593	138.845	199.317
4.8	-140.578	138.856	203.775
4.816666667	-140.564	138.868	208.571
4.833333333	-140.55	138.882	213.74
4.85	-140.536	138.897	219.319
4.866666667	-140.523	138.914	225.372
4.883333333	-140.51	138.932	232.222
4.9	-140.497	138.953	239.859
4.916666667	-140.484	138.975	248.429
4.933333333	-140.471	138.999	258.099
4.95	-140.459	139.026	269.117
4.966666667	-140.448	139.055	283.197
4.983333333	-140.436	139.087	301.241
5	-140.425	139.122	324.837
5.016666667	-140.414	139.161	356.113
5.033333333	-140.404	139.205	395.659
5.05	-140.394	139.253	446.687
5.066666667	-140.385	139.307	496.636
5.083333333	-140.377	139.369	536.792
5.1	-140.368	139.441	569.398
5.116666667	-140.361	139.524	595.356
5.133333333	-140.355	139.622	616.647
5.15	-140.349	139.737	633.833
5.166666667	-140.344	139.871	647.725
5.183333333	-140.341	140.023	659.152
5.2	-140.339	140.195	668.518
5.216666667	-140.339	140.385	676.158
5.233333333	-140.34	140.592	682.324
5.25	-140.343	140.813	687.29
5.266666667	-140.348	141.047	691.266
5.283333333	-140.355	141.291	694.441
5.3	-140.363	141.543	696.958
5.316666667	-140.374	141.799	698.936
5.333333333	-140.387	142.058	700.47
5.35	-140.402	142.319	701.643
5.366666667	-140.419	142.577	697.531
5.383333333	-140.438	142.834	655.74
5.4	-140.459	143.086	611.853
5.416666667	-140.482	143.332	570.131
5.433333333	-140.507	143.571	531.316
5.45	-140.533	143.8	495.513
5.466666667	-140.561	144.017	462.683
5.483333333	-140.59	144.217	432.678
5.5	-140.621	144.398	405.31
5.516666667	-140.653	144.557	380.365
5.533333333	-140.686	144.691	357.651
5.55	-140.72	144.799	336.989
5.566666667	-140.754	144.881	318.174
5.583333333	-140.789	144.934	301.023
5.6	-140.823	144.961	285.382
5.616666667	-140.857	144.963	271.12
5.633333333	-140.891	144.94	258.117
5.65	-140.925	144.894	246.256
5.666666667	-140.958	144.829	235.432
5.683333333	-140.989	144.745	225.551
5.7	-141.02	144.644	216.526
5.716666667	-141.05	144.53	208.281
5.733333333	-141.078	144.404	200.747
5.75	-141.105	144.267	193.861
5.766666667	-141.131	144.123	187.565
5.783333333	-141.155	143.972	181.81
5.8	-141.178	143.816	176.548
5.816666667	-141.199	143.656	171.734
5.833333333	-141.219	143.495	167.332
5.85	-141.237	143.333	163.305
5.866666667	-141.254	143.171	159.624
5.883333333	-141.269	143.009	156.259
5.9	-141.283	142.85	153.183
5.916666667	-141.295	142.693	150.375
5.933333333	-141.306	142.539	147.817
5.95	-141.316	142.388	145.488
5.966666667	-141.324	142.241	143.405
5.983333333	-141.331	142.098	259.08
6	-141.337	141.959	340.689
6.016666667	-141.341	141.825	407.038
6.033333333	-141.345	141.699	460.717
6.05	-141.347	141.583	504.353
6.066666667	-141.349	141.483	539.979
6.083333333	-141.349	141.404	569.033
6.1	-141.35	141.352	592.708
6.116666667	-141.35	141.329	611.973
6.133333333	-141.349	141.339	627.658
6.15	-141.35	141.382	640.473
6.166666667	-141.35	141.459	650.91
6.183333333	-141.351	141.568	659.429
6.2	-141.354	141.705	666.391
6.216666667	-141.357	141.868	672.056
6.233333333	-141.362	142.053	676.623
6.25	-141.369	142.257	680.301
6.266666667	-141.377	142.474	683.222
6.283333333	-141.387	142.703	685.532
6.3	-141.399	142.94	687.336
6.316666667	-141.413	143.183	688.728
6.333333333	-141.429	143.428	689.786
6.35	-141.446	143.674	690.568
6.366666667	-141.466	143.918	691.127
6.383333333	-141.487	144.16	691.499
6.4	-141.51	144.397	691.719
6.416666667	-141.535	144.628	691.813
6.433333333	-141.562	144.854	691.801
6.45	-141.59	145.072	691.705
6.466666667	-141.62	145.283	691.537
6.483333333	-141.651	145.486	691.313
6.5	-141.684	145.681	691.042
6.516666667	-141.718	145.869	690.731
6.533333333	-141.753	146.047	690.392
6.55	-141.789	146.219	690.024
6.566666667	-141.827	146.382	689.632
6.583333333	-141.865	146.538	689.225
6.6	-141.905	146.687	688.801
6.616666667	-141.945	146.829	688.362
6.633333333	-141.986	146.964	687.913
6.65	-142.028	147.094	687.455
6.666666667	-142.07	147.217	686.991
6.683333333	-142.114	147.335	686.521
6.7	-142.157	147.447	686.049
6.716666667	-142.202	147.554	685.575
6.733333333	-142.247	147.656	685.1
6.75	-142.292	147.754	684.624
6.766666667	-142.338	147.848	684.148
6.783333333	-142.384	147.938	683.673
6.8	-142.43	148.024	683.197
6.816666667	-142.477	148.106	682.721
6.833333333	-142.524	148.186	682.246
6.85	-142.571	148.262	681.771
6.866666667	-142.619	148.336	681.295
6.883333333	-142.667	148.408	680.821
6.9	-142.715	148.477	680.347
6.916666667	-142.763	148.544	679.874
6.933333333	-142.811	148.609	679.401
6.95	-142.859	148.672	678.93
6.966666667	-142.908	148.733	678.461
6.983333333	-142.956	148.793	677.993
7	-143.005	148.852	677.526
7.016666667	-143.054	148.909	677.061
7.033333333	-143.103	148.964	676.597
7.05	-143.151	149.019	676.134
7.066666667	-143.2	149.072	675.672
7.083333333	-143.249	149.125	675.212
7.1	-143.298	149.176	674.753
7.116666667	-143.347	149.227	674.294
7.133333333	-143.396	149.277	673.837
7.15	-143.445	149.326	673.381
7.166666667	-143.494	149.374	672.926
7.183333333	-143.543	149.422	672.473
7.2	-143.592	149.469	672.021
7.216666667	-143.641	149.516	671.57
7.233333333	-143.69	149.562	671.12
7.25	-143.739	149.608	670.671
7.266666667	-143.788	149.653	670.224
7.283333333	-143.837	149.698	669.778
7.3	-143.886	149.742	669.332
7.316666667	-143.934	149.787	668.888
7.333333333	-143.983	149.83	668.446
7.35	-144.032	149.874	668.005
7.366666667	-144.081	149.917	667.564
7.383333333	-144.129	149.96	667.125
7.4	-144.178	150.002	666.687
7.416666667	-144.226	150.045	666.249
7.433333333	-144.275	150.087	665.812
7.45	-144.323	150.129	665.376
7.466666667	-144.372	150.17	664.941
7.483333333	-144.42	150.212	664.507
7.5	-144.468	150.253	664.074
7.516666667	-144.516	150.294	663.642
7.533333333	-144.564	150.335	663.21
7.55	-144.612	150.376	662.779
7.566666667	-144.66	150.416	662.35
7.583333333	-144.708	150.457	661.921
7.6	-144.756	150.497	661.493
7.616666667	-144.804	150.538	661.066
7.633333333	-144.852	150.578	660.64
7.65	-144.899	150.618	660.214
7.666666667	-144.947	150.657	659.79
7.683333333	-144.995	150.697	659.367
7.7	-145.042	150.737	658.944
7.716666667	-145.09	150.776	658.523
7.733333333	-145.137	150.816	658.102
7.75	-145.184	150.855	657.682
7.766666667	-145.231	150.894	657.263
7.783333333	-145.279	150.934	656.845
7.8	-145.326	150.973	656.427
7.816666667	-145.373	151.011	656.01
7.833333333	-145.42	151.05	655.594
7.85	-145.467	151.089	655.179
7.866666667	-145.513	151.128	654.764
7.883333333	-145.56	151.166	654.35
7.9	-145.607	151.205	653.937
7.916666667	-145.653	151.243	653.524
7.933333333	-145.7	151.281	653.112
7.95	-145.746	151.319	652.701
7.966666667	-145.793	151.358	652.29
7.983333333	-145.839	151.396	651.88
8	-145.885	151.434	651.471
8.016666667	-145.932	151.471	651.062
8.033333333	-145.978	151.509	650.654
8.05	-146.024	151.547	650.247
8.066666667	-146.07	151.585	649.84
8.083333333	-146.116	151.622	649.434
8.1	-146.162	151.66	649.029
8.116666667	-146.207	151.697	648.624
8.133333333	-146.253	151.734	648.22
8.15	-146.299	151.772	647.816
8.166666667	-146.344	151.809	647.413
8.183333333	-146.39	151.846	647.011
8.2	-146.435	151.883	646.609
8.216666667	-146.481	151.92	646.208
8.233333333	-146.526	151.957	645.808
8.25	-146.571	151.994	645.408
8.266666667	-146.616	152.031	645.009
8.283333333	-146.662	152.068	644.61
8.3	-146.707	152.105	644.212
8.316666667	-146.752	152.142	643.814
8.333333333	-146.796	152.178	643.417
8.35	-146.841	152.215	643.02
8.366666667	-146.886	152.251	642.624
8.383333333	-146.931	152.288	642.229
8.4	-146.975	152.324	641.834
8.416666667	-147.02	152.361	641.44
8.433333333	-147.064	152.397	641.046
8.45	-147.109	152.433	640.653
8.466666667	-147.153	152.469	640.26
8.483333333	-147.197	152.505	639.868
8.5	-147.241	152.541	639.476
8.516666667	-147.286	152.577	639.085
8.533333333	-147.33	152.613	638.694
8.55	-147.374	152.649	638.304
8.566666667	-147.418	152.685	637.915
8.583333333	-147.461	152.721	637.526
8.6	-147.505	152.757	637.137
8.616666667	-147.549	152.792	636.749
8.633333333	-147.593	152.828	636.361
8.65	-147.636	152.863	635.974
8.666666667	-147.68	152.899	635.587
8.683333333	-147.723	152.934	635.201
8.7	-147.767	152.969	634.815
8.716666667	-147.81	153.005	634.43
8.733333333	-147.853	153.04	634.046
8.75	-147.896	153.075	633.661
8.766666667	-147.939	153.11	633.278
8.783333333	-147.982	153.145	632.894
8.8	-148.025	153.18	632.512
8.816666667	-148.068	153.215	632.129
8.833333333	-148.111	153.25	631.747
8.85	-148.154	153.285	631.366
8.866666667	-148.197	153.32	630.985
8.883333333	-148.239	153.355	630.604
8.9	-148.282	153.389	630.224
8.916666667	-148.325	153.424	629.845
8.933333333	-148.367	153.458	629.466
8.95	-148.409	153.493	629.087
8.966666667	-148.452	153.527	628.709
8.983333333	-148.494	153.562	628.331
9	-148.536	153.596	627.954
9.016666667	-148.578	153.63	627.577
9.033333333	-148.62	153.665	627.2
9.05	-148.662	153.699	626.824
9.066666667	-148.704	153.733	626.449
9.083333333	-148.746	153.767	626.074
9.1	-148.788	153.801	625.699
9.116666667	-148.83	153.835	625.325
9.133333333	-148.871	153.869	624.951
9.15	-148.913	153.903	624.578
9.166666667	-148.955	153.937	624.205
9.183333333	-148.996	153.971	623.832
9.2	-149.037	154.004	623.46
9.216666667	-149.079	154.038	623.088
9.233333333	-149.12	154.072	622.717
9.25	-149.161	154.105	622.346
9.266666667	-149.203	154.139	621.976
9.283333333	-149.244	154.172	621.606
9.3	-149.285	154.206	621.237
9.316666667	-149.326	154.239	620.867
9.333333333	-149.367	154.273	620.499
9.35	-149.407	154.306	620.131
9.366666667	-149.448	154.339	619.763
9.383333333	-149.489	154.372	619.395
9.4	-149.53	154.406	619.028
9.416666667	-149.57	154.439	618.662
9.433333333	-149.611	154.472	618.295
9.45	-149.651	154.505	617.93
9.466666667	-149.692	154.538	617.564
9.483333333	-149.732	154.571	617.199
9.5	-149.772	154.604	616.835
9.516666667	-149.813	154.636	616.471
9.533333333	-149.853	154.669	616.107
9.55	-149.893	154.702	615.744
9.566666667	-149.933	154.735	615.381
9.583333333	-149.973	154.767	615.018
9.6	-150.013	154.8	614.656
9.616666667	-150.053	154.832	614.294
9.633333333	-150.092	154.865	613.933
9.65	-150.132	154.897	613.572
9.666666667	-150.172	154.93	613.211
