Time [h]	dummy.VentilationHeatLoad [W]	dummy.ConstructionHeatConductionLoad [W]	Floor.ActiveLayerThermalLoad [W]
0	-140.922	0	502.494
0.01666666667	-139.841	20.6906	245.723
0.03333333333	-138.925	37.6067	237.562
0.05	-138.144	51.6346	248.996
0.06666666667	-137.477	63.3429	272.249
0.08333333333	-136.903	73.1597	303.093
0.1	-136.41	81.4229	338.455
0.1166666667	-135.983	88.4047	376.13
0.1333333333	-135.614	94.325	414.514
0.15	-135.292	99.3634	452.474
0.1666666667	-135.013	103.668	489.219
0.1833333333	-134.768	107.361	524.218
0.2	-134.554	110.544	557.14
0.2166666667	-134.367	113.3	587.798
0.2333333333	-134.202	115.7	616.114
0.25	-134.057	117.802	642.095
0.2666666667	-133.93	119.653	665.795
0.2833333333	-133.819	121.295	687.304
0.3	-133.721	122.761	706.733
0.3166666667	-133.636	124.079	724.213
0.3333333333	-133.561	125.272	739.883
0.35	-133.497	126.357	753.886
0.3666666667	-133.442	127.352	766.359
0.3833333333	-133.396	128.268	777.438
0.4	-133.357	129.117	787.247
0.4166666667	-133.325	129.907	795.907
0.4333333333	-133.3	130.645	803.529
0.45	-133.28	131.337	810.216
0.4666666667	-133.267	131.988	816.064
0.4833333333	-133.259	132.603	821.161
0.5	-133.256	133.183	825.588
0.5166666667	-133.258	133.732	829.417
0.5333333333	-133.264	134.252	832.712
0.55	-133.274	134.745	835.533
0.5666666667	-133.288	135.214	837.932
0.5833333333	-133.306	135.658	839.957
0.6	-133.327	136.081	841.65
0.6166666667	-133.352	136.483	843.049
0.6333333333	-133.38	136.864	844.189
0.65	-133.41	137.227	845.099
0.6666666667	-133.443	137.572	845.806
0.6833333333	-133.479	137.899	846.335
0.7	-133.517	138.211	846.705
0.7166666667	-133.557	138.507	846.938
0.7333333333	-133.599	138.788	847.048
0.75	-133.643	139.055	847.051
0.7666666667	-133.689	139.31	846.96
0.7833333333	-133.737	139.551	846.787
0.8	-133.786	139.782	846.543
0.8166666667	-133.837	140	846.235
0.8333333333	-133.889	140.209	845.873
0.85	-133.942	140.407	845.462
0.8666666667	-133.997	140.596	845.01
0.8833333333	-134.052	140.776	844.522
0.9	-134.109	140.947	844.002
0.9166666667	-134.166	141.111	843.455
0.9333333333	-134.224	141.267	842.884
0.95	-134.283	141.416	842.292
0.9666666667	-134.343	141.559	841.683
0.9833333333	-134.404	141.695	841.059
1	-134.465	141.826	840.423
1.016666667	-134.526	141.952	839.775
1.033333333	-134.589	142.072	839.119
1.05	-134.651	142.188	838.455
1.066666667	-134.714	142.3	837.784
1.083333333	-134.778	142.407	837.109
1.1	-134.841	142.511	836.43
1.116666667	-134.905	142.611	835.747
1.133333333	-134.97	142.708	835.062
1.15	-135.034	142.802	834.375
1.166666667	-135.099	142.893	833.686
1.183333333	-135.164	142.981	832.997
1.2	-135.229	143.067	832.308
1.216666667	-135.295	143.15	831.618
1.233333333	-135.36	143.232	830.929
1.25	-135.426	143.311	830.24
1.266666667	-135.492	143.389	829.553
1.283333333	-135.558	143.465	828.866
1.3	-135.624	143.539	828.181
1.316666667	-135.69	143.612	827.497
1.333333333	-135.756	143.683	826.815
1.35	-135.822	143.753	826.134
1.366666667	-135.888	143.822	825.455
1.383333333	-135.954	143.89	824.777
1.4	-136.02	143.956	824.102
1.416666667	-136.086	144.022	823.428
1.433333333	-136.152	144.087	822.757
1.45	-136.218	144.151	822.087
1.466666667	-136.284	144.214	821.419
1.483333333	-136.351	144.276	820.753
1.5	-136.417	144.338	820.09
1.516666667	-136.483	144.399	819.428
1.533333333	-136.549	144.459	818.768
1.55	-136.614	144.519	818.111
1.566666667	-136.68	144.578	817.455
1.583333333	-136.746	144.637	816.802
1.6	-136.812	144.696	816.15
1.616666667	-136.877	144.754	815.5
1.633333333	-136.943	144.811	814.853
1.65	-137.009	144.868	814.207
1.666666667	-137.074	144.925	813.562
1.683333333	-137.139	144.982	812.92
1.7	-137.205	145.038	812.28
1.716666667	-137.27	145.093	811.641
1.733333333	-137.335	145.149	811.004
1.75	-137.4	145.204	810.369
1.766666667	-137.465	145.259	809.735
1.783333333	-137.53	145.314	809.103
1.8	-137.595	145.368	808.473
1.816666667	-137.66	145.422	807.845
1.833333333	-137.724	145.476	807.218
1.85	-137.789	145.53	806.592
1.866666667	-137.853	145.584	805.969
1.883333333	-137.918	145.637	805.347
1.9	-137.982	145.69	804.726
1.916666667	-138.046	145.743	804.107
1.933333333	-138.11	145.796	803.49
1.95	-138.174	145.849	802.874
1.966666667	-138.238	145.901	802.259
1.983333333	-138.302	145.953	801.646
2	-138.366	146.005	801.035
2.016666667	-138.429	146.057	800.424
2.033333333	-138.493	146.109	799.815
2.05	-138.556	146.161	799.208
2.066666667	-138.62	146.213	798.602
2.083333333	-138.683	146.264	797.997
2.1	-138.746	146.315	797.393
2.116666667	-138.809	146.366	796.791
2.133333333	-138.872	146.417	796.19
2.15	-138.935	146.468	795.591
2.166666667	-138.997	146.519	794.992
2.183333333	-139.06	146.57	794.395
2.2	-139.123	146.62	793.799
2.216666667	-139.185	146.671	793.204
2.233333333	-139.247	146.721	792.61
2.25	-139.31	146.771	792.018
2.266666667	-139.372	146.821	791.427
2.283333333	-139.434	146.871	790.837
2.3	-139.496	146.921	790.248
2.316666667	-139.558	146.97	789.66
2.333333333	-139.619	147.02	789.073
2.35	-139.681	147.07	788.487
2.366666667	-139.742	147.119	787.903
2.383333333	-139.804	147.168	787.319
2.4	-139.865	147.217	786.737
2.416666667	-139.926	147.267	786.155
2.433333333	-139.987	147.316	785.575
2.45	-140.048	147.364	784.996
2.466666667	-140.109	147.413	784.418
2.483333333	-140.17	147.462	783.841
2.5	-140.231	147.51	783.265
2.516666667	-140.292	147.559	782.69
2.533333333	-140.352	147.607	782.116
2.55	-140.412	147.656	781.542
2.566666667	-140.473	147.704	692.038
2.583333333	-140.533	147.752	612.256
2.6	-140.593	147.799	542.676
2.616666667	-140.653	147.845	481.907
2.633333333	-140.713	147.886	428.758
2.65	-140.773	147.917	381
2.666666667	-140.832	147.933	339.671
2.683333333	-140.891	147.93	303.97
2.7	-140.949	147.902	272
2.716666667	-141.007	147.847	243.63
2.733333333	-141.063	147.763	218.532
2.75	-141.118	147.649	196.403
2.766666667	-141.172	147.505	176.787
2.783333333	-141.224	147.333	159.357
2.8	-141.274	147.135	143.868
2.816666667	-141.321	146.913	130.096
2.833333333	-141.367	146.67	117.847
2.85	-141.41	146.41	106.935
2.866666667	-141.45	146.135	97.2056
2.883333333	-141.488	145.848	88.5208
2.9	-141.523	145.552	80.7626
2.916666667	-141.555	145.249	73.826
2.933333333	-141.584	144.943	67.6165
2.95	-141.611	144.636	62.0614
2.966666667	-141.635	144.33	57.0785
2.983333333	-141.656	144.026	52.6162
3	-141.674	143.726	48.6062
3.016666667	-141.69	143.431	45.0054
3.033333333	-141.703	143.142	41.7651
3.05	-141.714	142.861	38.8462
3.066666667	-141.722	142.587	36.2138
3.083333333	-141.728	142.322	33.8359
3.1	-141.732	142.065	31.6867
3.116666667	-141.734	141.818	29.7401
3.133333333	-141.734	141.58	27.9773
3.15	-141.731	141.351	26.3767
3.166666667	-141.727	141.131	24.9237
3.183333333	-141.722	140.921	23.602
3.2	-141.714	140.72	22.3986
3.216666667	-141.705	140.527	21.3019
3.233333333	-141.694	140.344	20.3005
3.25	-141.683	140.169	19.3857
3.266666667	-141.669	140.001	18.5481
3.283333333	-141.655	139.842	17.7808
3.3	-141.639	139.69	17.0765
3.316666667	-141.622	139.546	16.4296
3.333333333	-141.604	139.408	15.8342
3.35	-141.586	139.277	15.2858
3.366666667	-141.566	139.152	14.7795
3.383333333	-141.545	139.034	14.3111
3.4	-141.524	138.92	13.8779
3.416666667	-141.502	138.812	13.4771
3.433333333	-141.479	138.71	13.1013
3.45	-141.456	138.612	12.7509
3.466666667	-141.432	138.518	12.4248
3.483333333	-141.407	138.429	12.1223
3.5	-141.382	138.344	11.844
3.516666667	-141.357	138.262	11.5908
3.533333333	-141.331	138.183	11.3553
3.55	-141.304	138.108	11.1383
3.566666667	-141.278	138.036	10.9404
3.583333333	-141.25	137.967	10.7612
3.6	-141.223	137.9	10.5962
3.616666667	-141.195	137.836	10.4458
3.633333333	-141.167	137.774	10.3087
3.65	-141.139	137.715	10.1838
3.666666667	-141.11	137.658	10.071
3.683333333	-141.081	137.602	9.96903
3.7	-141.052	137.549	9.8769
3.716666667	-141.023	137.497	9.7944
3.733333333	-140.993	137.447	9.72202
3.75	-140.964	137.398	9.65907
3.766666667	-140.934	137.351	9.60549
3.783333333	-140.904	137.305	9.56156
3.8	-140.874	137.26	9.52765
3.816666667	-140.844	137.217	9.50414
3.833333333	-140.813	137.175	9.49162
3.85	-140.783	137.133	9.49131
3.866666667	-140.753	137.093	9.50424
3.883333333	-140.722	137.053	9.53157
3.9	-140.691	137.015	9.57474
3.916666667	-140.661	136.977	9.64112
3.933333333	-140.63	136.94	9.73217
3.95	-140.599	136.903	9.85177
3.966666667	-140.568	136.868	10.0076
3.983333333	-140.538	136.832	10.2342
4	-140.507	136.798	10.5464
4.016666667	-140.476	136.764	10.9743
4.033333333	-140.445	136.731	12.1391
4.05	-140.414	136.698	46.3658
4.066666667	-140.383	136.666	208.328
4.083333333	-140.352	136.634	323.454
4.1	-140.321	136.604	415.054
4.116666667	-140.29	136.58	488.166
4.133333333	-140.259	136.566	547.873
4.15	-140.228	136.571	594.777
4.166666667	-140.198	136.602	632.984
4.183333333	-140.169	136.665	664.127
4.2	-140.14	136.767	689.099
4.216666667	-140.112	136.908	709.113
4.233333333	-140.087	137.091	725.187
4.25	-140.063	137.314	738.059
4.266666667	-140.041	137.573	748.308
4.283333333	-140.022	137.866	756.464
4.3	-140.005	138.186	762.945
4.316666667	-139.991	138.531	768.073
4.333333333	-139.981	138.894	772.105
4.35	-139.973	139.271	775.255
4.366666667	-139.969	139.658	777.68
4.383333333	-139.968	140.049	779.525
4.4	-139.97	140.443	780.881
4.416666667	-139.976	140.834	781.845
4.433333333	-139.985	141.221	782.481
4.45	-139.997	141.6	782.855
4.466666667	-140.011	141.971	783.016
4.483333333	-140.029	142.331	783.006
4.5	-140.05	142.679	782.861
4.516666667	-140.073	143.015	782.608
4.533333333	-140.099	143.338	782.268
4.55	-140.127	143.647	781.859
4.566666667	-140.157	143.943	781.393
4.583333333	-140.19	144.226	780.882
4.6	-140.225	144.495	780.334
4.616666667	-140.261	144.751	779.757
4.633333333	-140.299	144.994	779.157
4.65	-140.339	145.225	778.538
4.666666667	-140.381	145.444	777.905
4.683333333	-140.424	145.652	747.058
4.7	-140.468	145.849	655.073
4.716666667	-140.513	146.035	579.72
4.733333333	-140.56	146.211	513.586
4.75	-140.608	146.375	455.819
4.766666667	-140.656	146.524	405.312
4.783333333	-140.705	146.653	360.969
4.8	-140.755	146.759	321.902
4.816666667	-140.805	146.836	287.429
4.833333333	-140.855	146.881	256.985
4.85	-140.906	146.892	230.072
4.866666667	-140.955	146.868	206.258
4.883333333	-141.004	146.808	185.166
4.9	-141.052	146.713	166.474
4.916666667	-141.098	146.587	149.898
4.933333333	-141.143	146.431	135.184
4.95	-141.186	146.249	122.097
4.966666667	-141.228	146.043	110.458
4.983333333	-141.267	145.818	100.09
5	-141.303	145.576	90.8426
5.016666667	-141.338	145.32	82.5974
5.033333333	-141.37	145.055	75.2273
5.05	-141.399	144.782	68.6382
5.066666667	-141.426	144.504	62.7419
5.083333333	-141.451	144.225	57.4641
5.1	-141.472	143.945	52.7386
5.116666667	-141.492	143.666	48.5038
5.133333333	-141.509	143.39	44.7065
5.15	-141.523	143.119	41.297
5.166666667	-141.535	142.853	38.2326
5.183333333	-141.545	142.593	35.4752
5.2	-141.553	142.34	32.9914
5.216666667	-141.558	142.095	30.7513
5.233333333	-141.562	141.858	28.7286
5.25	-141.563	141.629	26.9016
5.266666667	-141.563	141.409	25.2478
5.283333333	-141.561	141.198	23.7513
5.3	-141.557	140.995	22.3964
5.316666667	-141.551	140.8	21.1668
5.333333333	-141.544	140.614	20.051
5.35	-141.536	140.436	19.0369
5.366666667	-141.526	140.267	18.1137
5.383333333	-141.515	140.105	17.2717
5.4	-141.503	139.951	16.5034
5.416666667	-141.489	139.804	15.8006
5.433333333	-141.474	139.664	15.1573
5.45	-141.459	139.53	14.5678
5.466666667	-141.442	139.404	14.0272
5.483333333	-141.425	139.283	13.5316
5.5	-141.407	139.169	13.0776
5.516666667	-141.388	139.059	12.6619
5.533333333	-141.368	138.955	12.2814
5.55	-141.347	138.857	11.9336
5.566666667	-141.326	138.762	11.6156
5.583333333	-141.305	138.672	11.3249
5.6	-141.283	138.587	11.0585
5.616666667	-141.26	138.505	10.8143
5.633333333	-141.237	138.427	10.5925
5.65	-141.213	138.352	10.3896
5.666666667	-141.189	138.281	10.2036
5.683333333	-141.165	138.213	10.033
5.7	-141.14	138.147	9.8784
5.716666667	-141.115	138.085	9.73735
5.733333333	-141.089	138.024	9.60861
5.75	-141.064	137.967	9.49159
5.766666667	-141.038	137.911	9.38675
5.783333333	-141.012	137.858	9.29318
5.8	-140.985	137.806	9.21077
5.816666667	-140.959	137.756	9.13925
5.833333333	-140.932	137.708	9.07806
5.85	-140.905	137.662	9.02751
5.866666667	-140.878	137.617	8.98768
5.883333333	-140.85	137.574	8.95869
5.9	-140.823	137.531	8.94067
5.916666667	-140.796	137.49	8.93388
5.933333333	-140.768	137.45	8.93854
5.95	-140.74	137.412	8.95494
5.966666667	-140.713	137.374	11.3588
5.983333333	-140.685	137.337	180.751
6	-140.657	137.301	297.984
6.016666667	-140.629	137.266	393.359
6.033333333	-140.601	137.237	468.904
6.05	-140.573	137.217	529.729
6.066666667	-140.545	137.214	578.547
6.083333333	-140.517	137.235	617.783
6.1	-140.49	137.288	649.352
6.116666667	-140.464	137.378	674.748
6.133333333	-140.439	137.507	695.178
6.15	-140.415	137.678	711.619
6.166666667	-140.393	137.889	724.843
6.183333333	-140.374	138.137	735.436
6.2	-140.356	138.419	743.886
6.216666667	-140.341	138.731	750.597
6.233333333	-140.329	139.066	755.901
6.25	-140.32	139.421	760.066
6.266666667	-140.314	139.791	763.316
6.283333333	-140.312	140.171	765.834
6.3	-140.312	140.557	767.742
6.316666667	-140.316	140.945	769.185
6.333333333	-140.323	141.332	770.203
6.35	-140.333	141.715	770.912
6.366666667	-140.346	142.091	771.341
6.383333333	-140.362	142.458	771.542
6.4	-140.381	142.815	771.57
6.416666667	-140.402	143.161	771.444
6.433333333	-140.427	143.495	771.208
6.45	-140.453	143.816	770.876
6.466666667	-140.483	144.124	770.475
6.483333333	-140.514	144.419	770.015
6.5	-140.548	144.701	769.511
6.516666667	-140.583	144.97	768.971
6.533333333	-140.621	145.225	768.401
6.55	-140.66	145.468	767.809
6.566666667	-140.701	145.699	767.197
6.583333333	-140.743	145.918	766.572
6.6	-140.787	146.126	765.935
6.616666667	-140.832	146.323	765.29
6.633333333	-140.879	146.51	764.638
6.65	-140.926	146.687	763.982
6.666666667	-140.975	146.855	763.324
6.683333333	-141.024	147.014	762.664
6.7	-141.074	147.166	762.003
6.716666667	-141.126	147.31	761.343
6.733333333	-141.177	147.446	760.684
6.75	-141.23	147.576	760.026
6.766666667	-141.283	147.7	759.37
6.783333333	-141.337	147.819	758.715
6.8	-141.391	147.932	758.064
6.816666667	-141.446	148.039	757.415
6.833333333	-141.501	148.143	756.768
6.85	-141.557	148.242	756.122
6.866666667	-141.612	148.337	755.48
6.883333333	-141.669	148.429	754.84
6.9	-141.725	148.517	754.202
6.916666667	-141.782	148.603	753.566
6.933333333	-141.839	148.685	752.933
6.95	-141.896	148.765	752.303
6.966666667	-141.953	148.842	751.675
6.983333333	-142.011	148.917	751.05
7	-142.068	148.99	750.427
7.016666667	-142.126	149.061	749.807
7.033333333	-142.184	149.13	749.19
7.05	-142.242	149.197	748.575
7.066666667	-142.3	149.263	747.963
7.083333333	-142.358	149.327	747.354
7.1	-142.416	149.391	746.747
7.116666667	-142.474	149.452	746.142
7.133333333	-142.532	149.513	745.54
7.15	-142.59	149.573	744.941
7.166666667	-142.648	149.631	744.344
7.183333333	-142.707	149.689	743.749
7.2	-142.765	149.746	743.156
7.216666667	-142.823	149.802	742.566
7.233333333	-142.881	149.858	741.977
7.25	-142.939	149.912	741.391
7.266666667	-142.997	149.967	740.807
7.283333333	-143.055	150.02	740.224
7.3	-143.113	150.073	739.644
7.316666667	-143.171	150.126	739.066
7.333333333	-143.229	150.178	738.489
7.35	-143.287	150.229	737.915
7.366666667	-143.345	150.281	737.342
7.383333333	-143.403	150.331	736.771
7.4	-143.461	150.382	736.202
7.416666667	-143.518	150.432	735.635
7.433333333	-143.576	150.482	735.069
7.45	-143.633	150.531	734.506
7.466666667	-143.691	150.58	733.943
7.483333333	-143.748	150.629	733.383
7.5	-143.805	150.678	732.824
7.516666667	-143.863	150.726	732.267
7.533333333	-143.92	150.775	731.711
7.55	-143.977	150.823	731.157
7.566666667	-144.034	150.87	730.604
7.583333333	-144.091	150.918	730.053
7.6	-144.148	150.965	729.504
7.616666667	-144.204	151.012	728.955
7.633333333	-144.261	151.059	728.409
7.65	-144.318	151.106	727.863
7.666666667	-144.374	151.153	727.319
7.683333333	-144.431	151.199	726.777
7.7	-144.487	151.246	726.235
7.716666667	-144.543	151.292	725.695
7.733333333	-144.6	151.338	725.157
7.75	-144.656	151.384	724.619
7.766666667	-144.712	151.43	724.083
7.783333333	-144.768	151.475	723.548
7.8	-144.823	151.521	723.015
7.816666667	-144.879	151.566	722.482
7.833333333	-144.935	151.611	721.951
7.85	-144.991	151.657	721.421
7.866666667	-145.046	151.702	720.892
7.883333333	-145.101	151.746	720.364
7.9	-145.157	151.791	719.838
7.916666667	-145.212	151.836	719.312
7.933333333	-145.267	151.881	718.788
7.95	-145.322	151.925	718.264
7.966666667	-145.377	151.969	717.742
7.983333333	-145.432	152.014	717.221
8	-145.487	152.058	716.701
8.016666667	-145.542	152.102	716.182
8.033333333	-145.596	152.146	715.664
8.05	-145.651	152.19	715.147
8.066666667	-145.705	152.233	714.631
8.083333333	-145.76	152.277	714.116
8.1	-145.814	152.321	713.602
8.116666667	-145.868	152.364	713.089
8.133333333	-145.922	152.407	712.577
8.15	-145.976	152.451	712.066
8.166666667	-146.03	152.494	711.556
8.183333333	-146.084	152.537	711.046
8.2	-146.138	152.58	710.538
8.216666667	-146.191	152.623	710.031
8.233333333	-146.245	152.666	709.524
8.25	-146.298	152.708	709.018
8.266666667	-146.352	152.751	708.514
8.283333333	-146.405	152.794	708.01
8.3	-146.458	152.836	707.507
8.316666667	-146.511	152.879	707.005
8.333333333	-146.564	152.921	706.503
8.35	-146.617	152.963	706.003
8.366666667	-146.67	153.005	705.503
8.383333333	-146.723	153.047	705.005
8.4	-146.775	153.089	704.507
8.416666667	-146.828	153.131	704.009
8.433333333	-146.88	153.173	703.513
8.45	-146.933	153.215	703.018
8.466666667	-146.985	153.257	702.523
8.483333333	-147.037	153.298	702.029
8.5	-147.09	153.34	701.536
8.516666667	-147.142	153.381	701.043
8.533333333	-147.194	153.423	700.552
8.55	-147.245	153.464	700.061
8.566666667	-147.297	153.505	699.571
8.583333333	-147.349	153.546	699.081
8.6	-147.4	153.587	698.593
8.616666667	-147.452	153.629	698.105
8.633333333	-147.503	153.669	697.618
8.65	-147.555	153.71	697.131
8.666666667	-147.606	153.751	696.646
8.683333333	-147.657	153.792	696.161
8.7	-147.708	153.832	695.677
8.716666667	-147.759	153.873	695.193
8.733333333	-147.81	153.914	694.71
8.75	-147.861	153.954	694.228
8.766666667	-147.912	153.994	693.747
8.783333333	-147.962	154.035	693.266
8.8	-148.013	154.075	692.786
8.816666667	-148.063	154.115	692.307
8.833333333	-148.114	154.155	691.828
8.85	-148.164	154.195	691.35
8.866666667	-148.214	154.235	690.873
8.883333333	-148.264	154.275	690.396
8.9	-148.315	154.315	689.92
8.916666667	-148.364	154.355	689.445
8.933333333	-148.414	154.394	688.97
8.95	-148.464	154.434	688.496
8.966666667	-148.514	154.474	688.023
8.983333333	-148.563	154.513	687.55
9	-148.613	154.552	687.078
9.016666667	-148.662	154.592	686.607
9.033333333	-148.712	154.631	686.136
9.05	-148.761	154.67	685.666
9.066666667	-148.81	154.709	685.196
9.083333333	-148.859	154.749	684.727
9.1	-148.908	154.788	684.259
9.116666667	-148.957	154.827	683.792
9.133333333	-149.006	154.865	683.325
9.15	-149.055	154.904	682.858
9.166666667	-149.104	154.943	682.392
9.183333333	-149.152	154.982	681.927
9.2	-149.201	155.02	681.463
9.216666667	-149.249	155.059	680.999
9.233333333	-149.298	155.097	680.536
9.25	-149.346	155.136	680.073
9.266666667	-149.394	155.174	679.611
9.283333333	-149.442	155.213	679.149
9.3	-149.49	155.251	678.688
9.316666667	-149.538	155.289	678.228
9.333333333	-149.586	155.327	677.768
9.35	-149.634	155.365	677.309
9.366666667	-149.682	155.403	676.851
9.383333333	-149.729	155.441	676.393
9.4	-149.777	155.479	675.935
9.416666667	-149.824	155.517	675.478
9.433333333	-149.872	155.555	675.022
9.45	-149.919	155.592	674.567
9.466666667	-149.966	155.63	674.112
9.483333333	-150.014	155.667	673.657
9.5	-150.061	155.705	673.203
9.516666667	-150.108	155.742	672.75
9.533333333	-150.155	155.78	672.297
9.55	-150.201	155.817	671.845
9.566666667	-150.248	155.854	671.393
9.583333333	-150.295	155.892	670.942
9.6	-150.341	155.929	670.492
9.616666667	-150.388	155.966	670.042
9.633333333	-150.434	156.003	669.592
9.65	-150.481	156.04	669.143
9.666666667	-150.527	156.077	668.695
